wavl,flux,ivar
3566.9744,0.23383341884998984,1948.6639365849826
3567.795,0.23582283220064043,5429.417989366397
3568.6177,0.23737609294092096,3435.0424147052377
3569.4385,0.23790017947810768,2307.9704230027664
3570.2617,0.23726653470312084,1761.649711122111
3571.083,0.2358904804922231,1722.2023302597374
3571.9065,0.23430633580472598,2320.086792608072
3572.7283,0.2325755116805959,4279.93511065061
3573.55,0.23010824960867318,1794.3867815641938
3574.374,0.22624868211229035,2247.2163109363296
3575.1963,0.22118262292381774,2598.0537337030505
3576.0208,0.21622785075215206,7089.524190615879
3576.8435,0.21333173405720746,91811.13421292233
3577.6682,0.2138605795000992,35304.61267231048
3578.4915,0.21793632927674322,1136.0128811844527
3579.3145,0.2247440132804593,2104.526450754399
3580.14,0.23337476934061363,4665.675849940188
3580.9636,0.24291654591101905,2247.452863186747
3581.7893,0.2519927835862698,6704.549673294312
3582.6133,0.25828758762605114,3354.498928342221
3583.4395,0.25966165882776443,116.2114160412661
3584.264,0.2556970061492965,3197.7781408929554
3585.0884,0.24829353391157225,1793.4022474559788
3585.915,0.24032279538428974,6313.690927666686
3586.74,0.23383452419531978,2127.704378836086
3587.5671,0.22918940236171872,10388.735239726951
3588.3923,0.22589061464298632,1933.8130839186513
3589.22,0.22351563471444102,2633.9017043166186
3590.0457,0.22212195490767664,3399.89844873252
3590.8716,0.22188054512850405,2839.975357391981
3591.6995,0.2227491381841915,2232.683355247637
3592.526,0.22438889133747683,2160.1337530893284
3593.3542,0.22629241923932325,2265.91566320947
3594.181,0.22784957867418562,2956.402163544394
3595.0098,0.22845368929089963,2021.7449974682204
3595.8367,0.2276817283126614,2293.6980941520887
3596.6638,0.22558547090401504,2289.326618906859
3597.4934,0.22274612846479458,5642.257955409357
3598.3208,0.21999659105741715,6086.394310691938
3599.1506,0.21788363555929277,6502.792900312409
3599.9788,0.21650537449629256,1961.8430403120442
3600.8088,0.21569190829425738,1654.1127123768701
3601.6372,0.21541537141463463,5720.237781485901
3602.4678,0.21592676782004852,9837.037393959567
3603.2964,0.21759627336023052,6567.10851333102
3604.1252,0.22065793095267072,5636.326437933118
3604.9565,0.22502764030437505,6151.948089751321
3605.786,0.2301227118937212,43027.03196166939
3606.6172,0.23491174020409944,74742.26798684697
3607.447,0.2380897308547743,3354.0883596372305
3608.2788,0.23873014145852073,2465.185341851387
3609.109,0.2367739663319608,3204.433396607748
3609.9392,0.23307112587135215,4245.5973298208155
3610.7717,0.22886890615639377,10353.561061945686
3611.6023,0.22529217853738998,5772.481367394314
3612.435,0.2229921292096437,2242.953598907919
3613.266,0.2222058749216428,13541.796729610873
3614.0994,0.22279572508818982,3871.630823627409
3614.9307,0.22434374359161685,3143.6866211919328
3615.7625,0.22627568573570694,5407.8721881391475
3616.5962,0.22804890038085812,2252.8584018089855
3617.4282,0.22935800025201733,2569.238655860396
3618.2625,0.23028825662623864,4173.137351682654
3619.0947,0.2312000513279681,4055.3892415533146
3619.9292,0.23244759779789984,4756.1428822514445
3620.762,0.23405401654278535,2448.18152251237
3621.595,0.2356587945245526,2302.991655277817
3622.4302,0.23669686928546224,3046.9878485470776
3623.2634,0.2367148347372054,1876.1447114136065
3624.0989,0.2357017549039135,1837.2463261911487
3624.9326,0.23424243860198932,3496.5850489975674
3625.7686,0.23331103489059213,3522.619890479439
3626.6028,0.23376062758280503,8700.656062103928
3627.437,0.23579011313954282,3475.4647249656487
3628.2734,0.23886655615764088,5229.701788633272
3629.1082,0.24205242357072257,2822.929558595104
3629.945,0.24455501420793196,2825.585789611954
3630.78,0.24595518974556674,2676.0570251934814
3631.6174,0.24622074689506204,3448.6167543229385
3632.453,0.24550340108380428,2730.328277533523
3633.2883,0.24404708650087265,1903.374338368276
3634.1262,0.2422274066283246,6960.347433303602
3634.9622,0.24065084557423214,4372.278520527151
3635.8005,0.2399951151477543,2753.9461965128467
3636.637,0.2406724338244773,3756.5584724976375
3637.4756,0.24254931065779456,2778.446147656519
3638.3123,0.24509973070314992,1883.9745860943067
3639.1492,0.24787533576056411,5060.094445363012
3639.9885,0.2506915899920789,4224.273826471073
3640.826,0.25337296948282334,1976.5877911990956
3641.6653,0.25556803928286514,3331.5653375584698
3642.5032,0.2568577946474872,5198.51505915112
3643.343,0.25714566182050846,1850.8702024524769
3644.1812,0.2567371563011983,1665.496909752529
3645.0195,0.25607637631033164,9399.39198036777
3645.86,0.2553949886945358,1922.4564898600922
3646.699,0.254601684670284,2025.419289149126
3647.5398,0.25338741951886373,5421.183743533733
3648.379,0.25141663722432195,2643.8759221701357
3649.2202,0.24845478765296072,3262.2345723626895
3650.0596,0.2446040011033782,1693.0790618529852
3650.8994,0.24044180164366846,2989.0039979395006
3651.7412,0.23699707339974102,16180.390991396653
3652.5813,0.23535963470101884,5714.545987450074
3653.4236,0.2360733218770266,10512.707465802965
3654.2642,0.238790326393157,5996.7829905566905
3655.1067,0.24236212795691356,1891.5581569609262
3655.9475,0.2453640569759246,1829.5801627851697
3656.7886,0.2468777802922099,1978.6867934956008
3657.6318,0.24685132643473245,2285.7836038491682
3658.4734,0.24588875355648837,2569.154417583862
3659.317,0.2446667857828189,3560.482604764545
3660.1587,0.24351860522584273,4343.958802057141
3661.003,0.24237065509423744,2458.629201108431
3661.845,0.2409709049782591,3479.3358357975444
3662.6875,0.2391372800109848,14152.432417702958
3663.532,0.2370045071238889,4966.690362948011
3664.3748,0.23511498483525314,3432.496331683874
3665.2197,0.23414831201100447,23114.423061244735
3666.063,0.23447161929282073,4493.961943801197
3666.9084,0.23582374856988034,2978.1852859541173
3667.752,0.23752539446343532,2974.6190265965165
3668.5977,0.23904815031661056,5764.628467963145
3669.4417,0.24032167320937736,1257168.4363733018
3670.286,0.24157018436121483,2997.8870992425987
3671.132,0.24282658656871295,3230.006024619311
3671.9768,0.24368189625070275,2627.489089658668
3672.8235,0.24357411723151473,2438.0293097690164
3673.6685,0.24235276356356678,2669.884475383046
3674.5156,0.24061685750084003,2215.2039620599753
3675.3608,0.23950219822378122,1999.2336824615265
3676.2063,0.23998477602245344,2183.511433033792
3677.0542,0.2422563398241231,3168.5920196380985
3677.9,0.24548055374804612,2604.833031904465
3678.748,0.24824164219817252,2540.6038203866497
3679.5945,0.24930023357051848,1980.3291039194369
3680.4429,0.24836693780719288,2271.2194764193387
3681.2896,0.24624290888854364,4364.068549412657
3682.1365,0.2442514732247498,7833.3129853563005
3682.9856,0.2433188851786182,4806.970306941403
3683.8328,0.243367960961628,4720.713198404358
3684.6824,0.2435008511891074,3163.698008745182
3685.53,0.24282751273036232,3692.8469787840822
3686.38,0.24118098326710088,3670.2847239089833
3687.2278,0.23920096118218678,2253.113928609525
3688.0762,0.23780794078253265,2220.3742628450264
3688.9265,0.23761140497733085,2309.469221076723
3689.7751,0.238565278243073,4305.0545828878185
3690.626,0.24005455707597156,2017.5440744102355
3691.475,0.24130737297217475,3768.216203746515
3692.3264,0.24188588615274537,3614.2192731239006
3693.1758,0.24186264825285347,4619.135450468984
3694.0254,0.24166844246959288,4628.626166479301
3694.8772,0.24176215387342095,5397.954042092026
3695.7273,0.2423819654924319,5935.847699080697
3696.5793,0.2434655581402688,5374.823032738323
3697.43,0.24470056895467424,3547.8161974656073
3698.2825,0.24566705424515373,2651.804170453932
3699.1333,0.24594653406829217,5721.542163464215
3699.9841,0.2452563271531553,3025.737031605914
3700.8374,0.2435865435325758,4098.8155391714245
3701.6887,0.24135777621684493,6695.3959920374455
3702.5425,0.23934139802818533,2352.789289628818
3703.3943,0.2383653077199555,2618.2676510374017
3704.2483,0.238808173127124,2229.8493990337756
3705.1003,0.24034675050195284,2494.848623065987
3705.9526,0.24215923152839058,2002.0225851057498
3706.8074,0.2434733459467782,3525.3095243709113
3707.66,0.24398256568069238,4444.477284330574
3708.515,0.24385724407529139,4627.089747840681
3709.3682,0.24344956637560627,1756.5306833536672
3710.2234,0.24310296764035805,1330.4793637144412
3711.0771,0.24311639085633693,1294.955096710162
3711.9307,0.2436703843655746,3542.8714033457763
3712.7866,0.24471475555974234,3878.4862302304978
3713.6409,0.2459844526632231,3603.7803245431683
3714.4973,0.24725160310449848,1912.6612955354108
3715.3518,0.24847772225697312,1665.7728670045044
3716.2085,0.24970656640521666,2308.3030636176345
3717.0635,0.2507625594281081,1908.093391052221
3717.9185,0.25123246933004917,1543.6222979423087
3718.776,0.2507410328287003,4742.088782184935
3719.6313,0.24923211746420026,2577.7645067727944
3720.489,0.24691279874820743,5174.158329616754
3721.345,0.24409922150079552,2863.4492255708847
3722.2031,0.24121721788257056,2237.2857972487504
3723.0593,0.23903543634840893,3686.9013244993967
3723.9158,0.2384864271137387,2319.0652098389937
3724.7747,0.24010197830072394,1692.6449558258487
3725.6316,0.24339731106147258,3473.663356346301
3726.4905,0.2469522281201278,1714.1462104526652
3727.348,0.24911734966447424,2557.9570507467706
3728.2073,0.24896997243879457,2611.8909045513415
3729.065,0.24674173745224753,1309.501991926418
3729.9229,0.24356662375348792,4015.6118388848013
3730.783,0.2407479586938221,6448.038336486487
3731.6414,0.23909053358932436,1477.5889939630717
3732.5017,0.23859093681644164,7077.178006683132
3733.3604,0.238691743200239,2191.4122043366388
3734.2214,0.23874442352183495,2343.548973015193
3735.0803,0.2383900291442664,2970.0594549925877
3735.9417,0.23759849814578907,7608.175345474736
3736.8013,0.23645130252694624,4790.6253558049875
3737.661,0.23496828720088406,10059.151579487261
3738.5227,0.23323662868001055,2687.486656714605
3739.3828,0.23166168235461654,3542.2071278380204
3740.245,0.23088866206524866,2137.841226420473
3741.1055,0.23141097247716783,3542.9862923514484
3741.9683,0.23317573161047003,2342.9536180679524
3742.829,0.2356058644000397,3247.195356984721
3743.69,0.23801581585795917,3560.8411320309456
3744.5532,0.23994589935785657,2498.819313222809
3745.4148,0.24117657024215472,5827.039908556254
3746.2786,0.24160712216680072,2885.096576807839
3747.1404,0.24119998647727578,3019.1637720838507
3748.0044,0.24014022766249804,2191.6563407363387
3748.8667,0.2389396813893181,5467.617096929347
3749.729,0.23823562470683382,7351.174253895033
3750.5938,0.23840268983076462,2632.9328077497166
3751.4565,0.2392892814490598,1871.7669450349508
3752.3215,0.24036905258507868,2234.239725404859
3753.1848,0.2411617401129014,2525.4816655396476
3754.0503,0.24156255960777023,2354.3693502247856
3754.9138,0.24177249503248463,4189.7796867349
3755.7776,0.24200875966046073,3708.8874975572276
3756.6438,0.24227661523036761,2157.7191232263435
3757.508,0.24239248626539003,2982.431348560496
3758.3745,0.2422031142858854,3230.2028112661483
3759.239,0.24178417498819194,2043.7864557225096
3760.106,0.24142667232300757,3823.0207733443085
3760.971,0.2414128874333086,2397.5209974121562
3761.8362,0.24177067565035346,3109.707077232567
3762.7036,0.2422509261059522,3901.1231389597137
3763.5693,0.24251590362063916,2029.5134672098711
3764.437,0.24238451155418744,3388.313268651871
3765.3032,0.24193332464153852,3138.709288628602
3766.1714,0.24141710618791662,2699.37620817121
3767.0378,0.2410982972076271,3756.2911942930828
3767.9043,0.2411107671099353,1749.6753521469896
3768.7732,0.24146497196684907,5116.195049447942
3769.6401,0.24211847270431894,2377.5349279551847
3770.5095,0.2430221185536166,2030.9737843120347
3771.377,0.2440604725673315,2249.9603096949536
3772.2466,0.24498856532060054,5414.067311341807
3773.1145,0.24539326618208365,3039.8530489138852
3773.9824,0.24482801987593775,2553.699533943668
3774.8528,0.24308202172091373,1433.5351661315985
3775.721,0.24052871196474856,1435.3140323462696
3776.5918,0.2381502502088659,6386.878108453246
3777.4604,0.23715373363006972,2314.0871053854366
3778.3315,0.2382073905070833,6083.644483326961
3779.201,0.2409821879205477,4291.651008402334
3780.0703,0.24432773315774906,2493.061130563735
3780.942,0.24696169628248882,1674.9405826255484
3781.8118,0.24813978304804712,3608.6579518442577
3782.6838,0.24794933858369111,4001.6119519200965
3783.554,0.24703606782198406,1080.2562375214425
3784.4265,0.24611533111803632,4290.614059237152
3785.297,0.24559682735949287,2541.9654314679283
3786.168,0.2454614217612579,2072.054731936182
3787.041,0.24540445564464386,1894.018019120598
3787.912,0.24507260636584105,3413.130457603352
3788.7856,0.24428295229896152,4329.743961281945
3789.6572,0.2431402728318647,2179.378427950353
3790.531,0.24192918415486442,2023.3335393824739
3791.403,0.24085004091163034,2144.539281761233
3792.2754,0.23975580773046504,1883.9569630913516
3793.15,0.23823657468704518,3040.606112940308
3794.0225,0.2360192384905769,3337.114525677913
3794.8972,0.2332674282318522,2720.735705144255
3795.7703,0.23055908344204554,3020.956125048613
3796.6455,0.22847566113287676,3228.418805430674
3797.519,0.22733050811948213,2911.277581487235
3798.3926,0.22708659169751688,3101.2391619490545
3799.2686,0.22752624243999456,3553.788202168931
3800.1426,0.228427371321829,2237.689273424742
3801.0188,0.22970463706588656,3823.5276069134006
3801.8933,0.23140067997133443,6736.3273013098515
3802.77,0.23358665115179159,2771.9424215943154
3803.6448,0.23621312128011865,3129.7123425928007
3804.522,0.23918079044447674,4614.836822216496
3805.3972,0.24239594808859197,4542.803473324074
3806.2727,0.2458146427025294,2441.4116020039096
3807.1504,0.24930380705844785,3511.105805460719
3808.0261,0.25258370438594274,2110.1886148668073
3808.9043,0.2553976550488329,3821.9547330352575
3809.7805,0.2575355835955234,3382.474918581781
3810.659,0.25884952179095777,2331.0982473182303
3811.5356,0.25919734036466896,2277.0666745930357
3812.4126,0.2585893202660436,2954.0319942909327
3813.2917,0.2572870692164104,3510.518028069939
3814.169,0.2557430673730386,1854.1504574869687
3815.0483,0.2543551268992316,2667.3198519128036
3815.926,0.253332985503812,3848.9200360697278
3816.806,0.25268477392875105,10164.415376781788
3817.684,0.2523299230070578,1249.3358177383773
3818.5623,0.25214187096456675,2284.642069138495
3819.4429,0.25194676740693295,2262.004590136834
3820.3215,0.2515552891728859,2477.1073458999217
3821.2024,0.2508997026786732,1948.0280815708702
3822.0815,0.25016864456111465,3682.907351603614
3822.963,0.24970335386204642,4871.224237085782
3823.8423,0.24970447706963678,2948.7595272536078
3824.722,0.2499809201734111,4662.360192051313
3825.604,0.24998944618323335,2482.1621884250703
3826.4841,0.24911890342964513,2645.814400959317
3827.3665,0.24703535350613073,584.6908013368266
3828.2468,0.24389127525718995,2741.6034334122382
3829.1296,0.24016306113143254,2834.781220893631
3830.0105,0.23633658696446583,3822.3042168758643
3830.8916,0.23252768012970754,2679.726172274258
3831.7751,0.22851623056237086,5833.575690982729
3832.6565,0.2241066089849825,3517.211508193208
3833.5403,0.21943926935215446,2851.296389965171
3834.4224,0.2152193562496704,3768.7447290533714
3835.3064,0.21239350384924494,5954.670379233636
3836.1887,0.21172490980939312,9681.622742027628
3837.0713,0.21333180480982072,4204.316250711718
3837.956,0.2166477351385164,4345.080911643076
3838.839,0.220661913827994,7644.658173730274
3839.7244,0.22444437049146798,5335.530120038837
3840.6077,0.22749600764764552,3399.650371640654
3841.4932,0.22993208707640017,2845.9230328112694
3842.377,0.23214884674366212,5668.166686336266
3843.261,0.23438264272029544,3280.155462552397
3844.1472,0.23642023319343636,1973.9932106996148
3845.0315,0.23779587078977116,2417.230394061832
3845.9182,0.2383400825265797,2349.827743400387
3846.803,0.23851672301226431,3460.873093149078
3847.69,0.23931249143756667,2708.588326722498
3848.5752,0.24167612958637966,2915.7084789348246
3849.4604,0.24594630383478974,2338.3995168754263
3850.3481,0.25166894535204104,1783.7589881649048
3851.234,0.2578562572299327,2724.603774821837
3852.122,0.2636437016048212,1659.9182719410026
3853.0083,0.26850982569972714,1851.483733428527
3853.8967,0.27231223707624075,3008.945270533999
3854.7832,0.27495891574921233,1175.104087181436
3855.6702,0.2763893321858972,1535.8376769011322
3856.559,0.2766385184502785,1271.1111632244827
3857.4463,0.27595616317304555,3512.4353478294306
3858.336,0.2747488783583644,2969.052656282815
3859.2234,0.2734175969458076,2209.2540566744997
3860.1135,0.27222450595559733,1686.6252940136374
3861.0015,0.27135689544122626,1800.138623934134
3861.8896,0.27097884073772815,2336.256875208882
3862.7803,0.27119824554301497,1527.8956425145766
3863.6687,0.27191208417304874,3495.777909590689
3864.5598,0.2727632655988217,1975.0747382652294
3865.4487,0.2732918518298701,4231.652484520839
3866.34,0.2732008780171779,1982.9166794683574
3867.2297,0.272459887346562,2399.1411193207964
3868.1213,0.27120034732086007,2211.5820496128854
3869.0112,0.26955022313822286,2635.2830074162616
3869.9014,0.26754710604794885,2332.5813000130984
3870.7937,0.26519906272550686,1828.8402750525695
3871.684,0.2625725809650547,1735.6970126613978
3872.577,0.25973407064037435,3971.0987037010655
3873.4678,0.2567275770302383,3254.803243348653
3874.361,0.25350446075505684,1776.049635465075
3875.2524,0.2500565644221272,2351.767230591839
3876.1438,0.24641258779917313,2680.747254732136
3877.0376,0.24259363141583803,4495.357275137848
3877.9297,0.2385536279775666,2036.655258044559
3878.8237,0.23413778803083216,3019.1730907033734
3879.716,0.22928426224659493,6637.801869737936
3880.6108,0.22406554688754265,5517.158110628091
3881.5037,0.21879160266421588,3166.5535313457694
3882.3965,0.21382425010722822,5796.4290909595575
3883.2917,0.20941844499721537,5991.055988818303
3884.185,0.20554132352521953,3202.9586026737156
3885.0808,0.20173545829997358,3243.636900293454
3885.9746,0.19743928062042776,3555.427883335918
3886.8706,0.1923593099995248,6048.982283280042
3887.765,0.18688632353650358,3958.004884408091
3888.6592,0.1819420072376122,9207.507031269168
3889.556,0.17855871098923257,10911.29702921817
3890.4507,0.17741573548077033,9994.540586478746
3891.348,0.17859242341391748,6587.026890161008
3892.243,0.18171584559405182,6575.888792917885
3893.1406,0.1862591211254694,6642.8758716715
3894.0361,0.19172562949128205,4400.556165742168
3894.932,0.1978515515749693,10206.598231479282
3895.83,0.20454793380583206,3653.638698522817
3896.7263,0.21168340933267377,2812.3522575766174
3897.625,0.2190080883783251,4120.790578796986
3898.5215,0.22593543447814607,2392.457530370535
3899.4207,0.23180693820744158,2017.9368350812815
3900.3176,0.23603212633504214,2921.862025850365
3901.2148,0.2385021041824237,2229.8293939881532
3902.1145,0.2396607457818449,2107.0726141149307
3903.0122,0.2403977581475807,2688.1933917095753
3903.912,0.24172878664881878,2973.282355773973
3904.8103,0.244380984892672,3241.767573820195
3905.7107,0.24858916235634945,1967.13773905003
3906.6094,0.2540758733776491,2209.9713298582496
3907.508,0.26033954165503165,2221.301274837745
3908.409,0.26688649164193673,2082.175190759361
3909.308,0.27326499526973935,1528.2423328667064
3910.2097,0.2791098308557686,1673.4194850980857
3911.1091,0.2840121881065369,1671.5386217636938
3912.011,0.28777235535379425,2115.8797797378115
3912.9111,0.29045830186659727,2377.2366189383565
3913.8113,0.2924372537549686,1692.106839729136
3914.7136,0.2941271434695896,1946.4877648964284
3915.6143,0.2957992016372832,1907.7542746024371
3916.517,0.2975564132984977,1811.3017400761046
3917.4182,0.29932589598353543,3600.384535702036
3918.3215,0.3008983388946234,1842.8259453698106
3919.223,0.30194047881666736,1781.9697299474458
3920.1245,0.30217384707891,2039.5011715659978
3921.0286,0.3015868761357611,1736.8399173334728
3921.9307,0.30059249787317327,1997.2135150789838
3922.835,0.29990122781127493,2010.0619122392968
3923.7373,0.3001527486422381,1641.834800824889
3924.642,0.3015243048740447,1395.2352845681562
3925.5452,0.30364052377582823,2319.4115103795752
3926.448,0.3058654310545423,1901.2873433152195
