wavl,flux,ivar
3566.9744,6.355470944133446,26.411838277676715
3567.795,6.357898228185273,26.727572169911138
3568.6177,6.353755172811177,22.43144984557739
3569.4385,6.342607254768352,26.521616368909438
3570.2617,6.323905043998306,23.356701856116516
3571.083,6.300105983044919,31.410921500460027
3571.9065,6.275631640059317,25.955842498789707
3572.7283,6.253747785311379,36.29861959575029
3573.55,6.234008323447396,33.24253793874344
3574.374,6.213973807754693,25.376853048049938
3575.1963,6.192629964059697,26.912050301425523
3576.0208,6.171616381187288,31.828529026357014
3576.8435,6.1543412221700295,33.494008945697516
3577.6682,6.143124043480402,37.10055917102287
3578.4915,6.137871086310889,36.908771413479
3579.3145,6.135951658012541,23.820966307837658
3580.14,6.133829232849862,34.93611004146024
3580.9636,6.129460198689541,23.768110245790165
3581.7893,6.124287295971554,32.82602713717499
3582.6133,6.123128360538395,44.21833738327062
3583.4395,6.131069502940084,27.574759493787663
3584.264,6.149446165850649,31.87117442802496
3585.0884,6.174335586444011,31.660953800863467
3585.915,6.198939958220681,26.79008815822518
3586.74,6.217880128073834,29.357558580634763
3587.5671,6.2308046181613514,30.866795108070967
3588.3923,6.241509376172892,27.874684827094633
3589.22,6.254522000226256,30.381793634574013
3590.0457,6.270838941510726,33.178480665215595
3590.8716,6.2868171028045206,28.598495804095705
3591.6995,6.2961691236034705,26.877699111992648
3592.526,6.293928682722056,33.41791986918806
3593.3542,6.279721483058974,28.35721100306732
3594.181,6.258131759346068,34.338607316873706
3595.0098,6.235841789151792,31.410518961808844
3595.8367,6.218431931633208,33.19794523880655
3596.6638,6.208099213682057,30.476749122952242
3597.4934,6.204208750064988,35.44924543154722
3598.3208,6.204117996667105,27.622491704936913
3599.1506,6.203153623369913,23.600844601959867
3599.9788,6.194862580722131,31.699825252775284
3600.8088,6.173352831011474,25.735540521363372
3601.6372,6.1380587853666775,22.292836295084903
3602.4678,6.0967189900478065,26.413957561022144
3603.2964,6.0643088425972955,30.936508295378296
3604.1252,6.055318515635495,34.63255850960886
3604.9565,6.075938556341039,41.6790577342554
3605.786,6.119399625567152,32.75791846976813
3606.6172,6.169237381874713,28.400060844588385
3607.447,6.20710189299645,32.36484230504229
3608.2788,6.222328844712028,29.21222007307618
3609.109,6.215434349605731,26.320117744422202
3609.9392,6.1955910390545155,29.915773559234207
3610.7717,6.17354434935429,30.8468323462529
3611.6023,6.155892758138558,30.59488601912404
3612.435,6.142718634331063,30.967329320958743
3613.266,6.130121863867622,24.643159390852155
3614.0994,6.114271672237975,37.03667971869755
3614.9307,6.095205753000971,27.84864025350202
3615.7625,6.076727650395057,28.297695938996625
3616.5962,6.063298550183666,33.052079114602435
3617.4282,6.056183888888121,35.24205145285064
3618.2625,6.052217280692471,28.254673631619553
3619.0947,6.046666215073243,27.17016161133349
3619.9292,6.037104340513556,27.29462759758438
3620.762,6.025374329461871,31.32992018593958
3621.595,6.015941913223574,27.344173843033495
3622.4302,6.012912317152229,27.962753338211293
3623.2634,6.017781958135707,28.94800642500424
3624.0989,6.028777815141672,34.38542577915596
3624.9326,6.041167204300707,24.496996921020227
3625.7686,6.048633450666234,27.720552170448954
3626.6028,6.045543737465998,21.598532265002284
3627.437,6.030116402351849,30.39041018808295
3628.2734,6.005609994101998,31.278205364139925
3629.1082,5.978529370613863,30.853069766489963
3629.945,5.953724350933868,39.484962758283096
3630.78,5.931639217549854,42.31564968218782
3631.6174,5.908992033821553,32.08288725177964
3632.453,5.884138311911146,27.430960913617994
3633.2883,5.860742896236078,27.036218981162484
3634.1262,5.846614088517455,36.24330420477186
3634.9622,5.847132365474613,30.888100067724885
3635.8005,5.859174120252424,32.37788063097883
3636.637,5.8725107677788575,25.460660873190392
3637.4756,5.877952538795678,41.47721581686418
3638.3123,5.874147217514083,30.84363556764354
3639.1492,5.867367893590094,37.978398166337755
3639.9885,5.8653233637414885,39.01347283116459
3640.826,5.871434673479272,41.01107666175479
3641.6653,5.883372149734983,33.887109703965606
3642.5032,5.895323352336685,36.014150515460265
3643.343,5.901807042617409,22.934863667765825
3644.1812,5.90048499210772,35.584366602515956
3645.0195,5.893254570116864,30.882923684513894
3645.86,5.88482794843552,36.692385059529755
3646.699,5.880031394808802,34.70953170596305
3647.5398,5.880921378668371,34.26362223453469
3648.379,5.885622261965415,33.36965801469558
3649.2202,5.8893590294283324,31.177517402854125
3650.0596,5.887332391716024,24.390925085038692
3650.8994,5.877956411740055,30.308804200365053
3651.7412,5.8639121938406324,45.112160042215855
3652.5813,5.849995784436234,38.522582180339676
3653.4236,5.838628500503671,47.584535248144064
3654.2642,5.827749126393278,31.981444395921294
3655.1067,5.8128146309793705,33.752304757997344
3655.9475,5.791875018726553,29.973158128748885
3656.7886,5.767839319780973,37.65786039557713
3657.6318,5.7461072064729075,33.15935689567615
3658.4734,5.730094229800559,40.85946091333798
3659.317,5.7190710619800385,37.913033059710884
3660.1587,5.711128299264397,25.862521599052858
3661.003,5.7067849502944314,46.7134453073711
3661.845,5.709621324924879,35.91883789394493
3662.6875,5.722735610083244,48.221534545341456
3663.532,5.745127396307674,38.18347458723812
3664.3748,5.77109920547506,38.88361287520559
3665.2197,5.793631756352028,29.507647182532423
3666.063,5.807587698527858,37.70899777010306
3666.9084,5.81212469643816,41.333913771850945
3667.752,5.810690312905687,34.22020255740331
3668.5977,5.809657492382817,35.56012549675194
3669.4417,5.814972820390364,42.19269748266683
3670.286,5.828188817649122,37.18581377606225
3671.132,5.8447478100464725,38.17827779322115
3671.9768,5.856030694450887,26.811479836648846
3672.8235,5.854282058840034,28.232868306973213
3673.6685,5.8363575639874,29.760301691817055
3674.5156,5.804684789847236,29.456572402299162
3675.3608,5.766311860586028,31.895515292136214
3676.2063,5.729983117694503,36.66170930367731
3677.0542,5.703571058074131,36.34420468705459
3677.9,5.691836302027568,31.128014258179473
3678.748,5.694854182471063,39.89297812928681
3679.5945,5.7085438130213175,35.09631420113915
3680.4429,5.725960568515527,29.861692346671546
3681.2896,5.7391958810110175,26.0040855202112
3682.1365,5.742011772842763,44.89742620275211
3682.9856,5.731679587390768,20.832338113282052
3683.8328,5.709961384427852,40.33737687215103
3684.6824,5.681867788816444,33.401707489208555
3685.53,5.653621351020461,32.38761277298805
3686.38,5.629686154061733,26.14475893345581
3687.2278,5.612153019795243,49.74853421123469
3688.0762,5.6007482447001635,32.54436082141397
3688.9265,5.594321576830481,43.99883583840969
3689.7751,5.59184890755273,39.47245028428261
3690.626,5.59263651207912,36.12797129538938
3691.475,5.59601318339824,52.967077267195194
3692.3264,5.601104008769218,38.85271103392446
3693.1758,5.607172212115524,36.77518670853095
3694.0254,5.61428467764867,30.321425936166772
3694.8772,5.623209087811641,32.73679245602197
3695.7273,5.634448456485478,35.02656982119217
3696.5793,5.647457554760135,41.19138798410392
3697.43,5.660246997436565,50.84684045982564
3698.2825,5.670093759437879,37.257291220457034
3699.1333,5.674147899246052,38.171623469026756
3699.9841,5.670375341507612,40.80497445093539
3700.8374,5.6582350478100745,42.07261675805303
3701.6887,5.639578912825239,38.44799120984697
3702.5425,5.618378448883895,32.68104891479523
3703.3943,5.5996011166991195,41.548488334698455
3704.2483,5.5864855593403195,32.967645447276254
3705.1003,5.579433372987374,35.91265878836407
3705.9526,5.5763077371599366,34.80139490158587
3706.8074,5.57420330925178,34.83998667472026
3707.66,5.570487317936066,44.47227339707259
3708.515,5.562914013243909,38.54781182472868
3709.3682,5.550103402708331,38.776135506498136
3710.2234,5.532787785943459,36.45766313819497
3711.0771,5.515389818370406,47.56315121191143
3711.9307,5.504874333352476,41.08123958861643
3712.7866,5.506842596791064,49.99669500631302
3713.6409,5.5209136976676945,33.51681271699745
3714.4973,5.539999924599824,34.16502401825044
3715.3518,5.5544716105665355,27.781650524846256
3716.2085,5.5582130561982455,38.7430492673702
3717.0635,5.550813810663874,37.21483024598603
3717.9185,5.535981760380828,40.60821865251431
3718.776,5.518593614205841,31.956762137018778
3719.6313,5.503257431697451,36.7209085039256
3720.489,5.493297889024902,31.332293678531332
3721.345,5.490276644178509,31.953093098723794
3722.2031,5.493070882274728,49.17067883231185
3723.0593,5.497935751742507,43.549053050563856
3723.9158,5.499902425957042,36.1611107493604
3724.7747,5.495174249773227,33.76248799549849
3725.6316,5.483172741712641,35.461873928650874
3726.4905,5.4663056197750315,37.727265337566344
3727.348,5.448092644899324,34.3624127597103
3728.2073,5.431123970724861,37.65894551830077
3729.065,5.4173923220132965,37.566380105617476
3729.9229,5.408958557454121,39.47611454183259
3730.783,5.407705070774982,38.51868840486262
3731.6414,5.4133990990515635,36.9838324636022
3732.5017,5.4226362324180615,37.189687821027036
3733.3604,5.430310415913102,42.36053727493171
3734.2214,5.432852594560188,33.59908625282933
3735.0803,5.430205829985805,42.74164691725163
3735.9417,5.4252355352048385,41.87540247261347
3736.8013,5.421072520121469,38.7797691836487
3737.661,5.418653770424601,34.79779440735311
3738.5227,5.416691658806894,40.93177608229482
3739.3828,5.413755506125667,38.28724999784254
3740.245,5.409978951198273,47.57028206007743
3741.1055,5.40627142351904,46.052668967263656
3741.9683,5.401741229878681,46.74196201668182
3742.829,5.392953809477088,35.41939674823603
3743.69,5.3762254909855365,58.57225291465917
3744.5532,5.350704235445756,35.86840942135192
3745.4148,5.319423414384838,43.77471214533051
3746.2786,5.287168052737782,41.74847205230658
3747.1404,5.258930663702045,41.883101701827016
3748.0044,5.238177457289498,46.02967653118473
3748.8667,5.226961339051941,61.386346649062865
3749.729,5.225688033819625,36.72757393964327
3750.5938,5.233730638896051,43.368251049940724
3751.4565,5.249188004497773,43.43617524708445
3752.3215,5.268637462531801,45.23262936949318
3753.1848,5.287639852697187,34.70711419376204
3754.0503,5.303498728074263,38.588686638805484
3754.9138,5.31687843891,41.27108558470287
3755.7776,5.33107632204324,44.46006455022925
3756.6438,5.348757802897089,33.2172185893311
3757.508,5.369465429672157,37.61788535988676
3758.3745,5.390009677935846,43.53922955901136
3759.239,5.4058207684056585,34.00808977024331
3760.106,5.413313285249242,37.48215549660519
3760.971,5.411217163885474,41.880268232029
3761.8362,5.401385913690602,38.672795215546074
3762.7036,5.387807144602574,37.784282332278394
3763.5693,5.374763957400928,48.020944815752756
3764.437,5.364843693341656,50.053777192034694
3765.3032,5.358604114244844,42.90743018569634
3766.1714,5.354756704216222,42.75395853664538
3767.0378,5.350588200904507,40.87215136659456
3767.9043,5.342377147014329,36.79914408615893
3768.7732,5.326983284497536,48.53903697589766
3769.6401,5.304537659924758,41.904985088086434
3770.5095,5.2794985525258,41.91431191723201
3771.377,5.259238719303337,47.76557664403312
3772.2466,5.24930755005728,44.97617102345012
3773.1145,5.250413161377756,37.98276956832442
3773.9824,5.2589078220805945,44.20460352115651
3774.8528,5.270895416175513,45.51199365242658
3775.721,5.2851458151210275,41.38940851544476
3776.5918,5.302732219355887,52.133005357947034
3777.4604,5.323869594859268,42.31264715434825
3778.3315,5.34661228980965,42.90872527622167
3779.201,5.366907089041392,48.891969864867974
3780.0703,5.380235512360923,37.15102563872774
3780.942,5.3827137201174065,35.572227873892714
3781.8118,5.372870047438195,55.29419679940011
3782.6838,5.353206974136675,42.68724649981426
3783.554,5.329916809716794,44.13981366336752
3784.4265,5.309588620488962,43.996779368900945
3785.297,5.296277549728724,35.499462968012104
3786.168,5.290008005933769,50.97902311591632
3787.041,5.288152629883162,46.74629357294056
3787.912,5.286921692034511,34.59805308805439
3788.7856,5.2820885570698675,32.33714024445262
3789.6572,5.269645985348058,50.89246218905877
3790.531,5.246941360300274,41.44594690881571
3791.403,5.214419687157539,37.33407629443517
3792.2754,5.175502770693648,35.283147690690484
3793.15,5.134734532248361,52.93433100162575
3794.0225,5.095329463327265,44.04806135904918
3794.8972,5.057493580135022,43.84198864702687
3795.7703,5.021113184103483,54.83649822055581
3796.6455,4.988000870179913,45.50982224665642
3797.519,4.963288356801184,50.52758063692649
3798.3926,4.952566023683651,51.74025847977621
3799.2686,4.958820537044304,43.20389805346632
3800.1426,4.98039139737923,46.39507495125092
3801.0188,5.011800597117394,50.416698085467196
3801.8933,5.045813635712562,47.532220811160464
3802.77,5.076559170195041,40.35552233517864
3803.6448,5.100784674189381,62.41651458632393
3804.522,5.119053620116766,50.982951141058635
3805.3972,5.13458974896829,37.960561693109476
3806.2727,5.15157297503116,57.53562720195081
3807.1504,5.172400966546503,49.610115366613954
3808.0261,5.196095091528816,50.42223849749644
3808.9043,5.219533213668719,42.08134529814075
3809.7805,5.239550877768772,38.69215293411841
3810.659,5.255593102712325,36.52890187917859
3811.5356,5.269583316318723,44.98356967410558
3812.4126,5.2843492302839605,47.50064198351485
3813.2917,5.300926242460592,44.7184243421099
3814.169,5.317091546250358,43.79389025378719
3815.0483,5.328803914387698,40.92534665161885
3815.926,5.3328629502101395,40.29751989938068
3816.806,5.32914754667766,45.88698835524301
3817.684,5.319909581636237,39.156010720281664
3818.5623,5.307449825109715,45.13557973446148
3819.4429,5.292604926412659,44.1269631031879
3820.3215,5.2752308007331195,40.08980622153099
3821.2024,5.254911514384633,33.4441188692056
3822.0815,5.231602306324288,52.267227787284185
3822.963,5.2049195099720835,51.104096805604605
3823.8423,5.174410193625724,42.83283115480578
3824.722,5.13951188130169,43.6130667102167
3825.604,5.100080797186779,45.20146810243814
3826.4841,5.056579818874416,43.032381337148955
3827.3665,5.00898507584504,48.639774631303226
3828.2468,4.957674322452301,46.02953330281049
3829.1296,4.903061298880427,47.62966193097245
3830.0105,4.847025326555046,53.72008493347469
3830.8916,4.792273201899448,41.68079161047284
3831.7751,4.7438919861263855,50.26795299812743
3832.6565,4.711745677173031,58.61717621361064
3833.5403,4.709688378774648,58.56145492658352
3834.4224,4.749327254131492,51.00516802668542
3835.3064,4.827059231694514,67.81642077214696
3836.1887,4.915419226800715,61.70273940389867
3837.0713,4.9743241779503125,25.807204876665175
3837.956,4.976541246591937,46.0761195866828
3838.839,4.928164439536367,56.89256306946632
3839.7244,4.863201290358952,50.84816306023009
3840.6077,4.819013245716278,52.10615142084969
3841.4932,4.814076654746749,49.60035162353627
3842.377,4.845565680517233,50.32404855632428
3843.261,4.899347840644141,42.57663128010164
3844.1472,4.961090789348113,41.66192910353718
3845.0315,5.020635662035058,41.78204905258537
3845.9182,5.073523400395442,39.25553675327322
3846.803,5.119105535784873,43.38012153483394
3847.69,5.160397014190146,45.34596943088505
3848.5752,5.200902394309101,48.378786174476836
3849.4604,5.242330039734068,48.94191176510117
3850.3481,5.282749676680449,42.09944479229617
3851.234,5.3174945286194495,38.79786264689767
3852.122,5.3430860607481225,47.10971473976134
3853.0083,5.359142495730367,36.42669488022661
3853.8967,5.368592636608299,48.53806545334883
3854.7832,5.374650235208011,40.83682605319751
3855.6702,5.378579383235052,41.222961700737
3856.559,5.379716852097927,39.90737927482153
3857.4463,5.377795013710096,37.906728747587984
3858.336,5.374649968717736,45.47550384736631
3859.2234,5.373194451756018,44.5591067891812
3860.1135,5.3745641617028825,38.86265534208803
3861.0015,5.376721878935484,41.14000824534878
3861.8896,5.376176784990035,45.13844834498988
3862.7803,5.371021517039436,42.70100550590758
3863.6687,5.362305349489043,39.78081050717053
3864.5598,5.352375862613714,42.75387367682579
3865.4487,5.342480102996748,34.44351940069365
3866.34,5.331463193478365,43.56675659189504
3867.2297,5.317036126022348,39.87041141546606
3868.1213,5.297437537353218,35.30235224978523
3869.0112,5.272637251846253,47.04080200501381
3869.9014,5.243435675157514,41.4141423529285
3870.7937,5.210225022450042,39.985622925417076
3871.684,5.172721664534375,46.68590012395651
3872.577,5.130175911079611,48.34956221130017
3873.4678,5.083330968538577,45.03570961856851
3874.361,5.033946773527211,59.692080015360666
3875.2524,4.984761210285588,45.85720096900514
3876.1438,4.937066207127418,47.02389213278013
3877.0376,4.889899298056025,44.209056337984364
3877.9297,4.840688614812852,40.571958391230346
3878.8237,4.786130731757415,44.11704404493938
3879.716,4.7247654023018,51.099762772838446
3880.6108,4.656429273706157,53.198375465798094
3881.5037,4.5825886894157435,51.577329613835545
3882.3965,4.504445663188874,55.604409785950644
3883.2917,4.423192882662574,53.37079029258215
3884.185,4.340605970137983,62.629039205778646
3885.0808,4.256670856564766,72.18367071532111
3885.9746,4.169990595578574,60.39778035021394
3886.8706,4.0768849368580655,89.41831518572057
3887.765,3.977373573767016,83.55908036543009
3888.6592,3.8794635975586886,71.59940045565008
3889.556,3.8008163511203317,101.30979343584566
3890.4507,3.7623620015949424,104.28385690700561
3891.348,3.7762337172715363,69.70750369904191
3892.243,3.840153188699251,76.38701625521402
3893.1406,3.9403776589100508,98.05157091295216
3894.0361,4.058273911576325,73.19193193661826
3894.932,4.178772979096,56.18068935842054
3895.83,4.29251964479987,47.320172753480016
3896.7263,4.394759016752292,55.41644351555566
3897.625,4.48548752063986,56.33274980564547
3898.5215,4.565577198951658,50.2490443419205
3899.4207,4.637537715633513,69.64371902600185
3900.3176,4.703539551127857,60.69335664325311
3901.2148,4.766711738503497,39.58507611636207
3902.1145,4.829674348950105,48.5662613089706
3903.0122,4.89288366267471,49.9325044876915
3903.912,4.9551894661978615,46.69837648885368
3904.8103,5.013574027833951,43.43812367997275
3905.7107,5.06582436004729,64.47614846034509
3906.6094,5.11073262957824,39.63946446861769
3907.508,5.1492365317780076,39.46983281490883
3908.409,5.183695984211928,42.492879730784985
3909.308,5.216864774725931,43.10093807021013
3910.2097,5.251333128582326,45.15821670945732
3911.1091,5.287887497239388,43.71252370553332
3912.011,5.325740588560697,41.652035042300625
3912.9111,5.362122050800412,39.14848534358354
3913.8113,5.393987551529994,43.161428116943796
3914.7136,5.419227298441953,41.405033975564045
3915.6143,5.437542385141613,35.4326943229081
3916.517,5.450726238050893,39.76490066711542
3917.4182,5.461239179813438,37.61628069986873
3918.3215,5.471158281298504,39.074695790437204
3919.223,5.481263877029168,36.25950155016826
3920.1245,5.491319969167696,34.1740835200819
3921.0286,5.500672053619788,43.52125440063359
3921.9307,5.508986223978158,38.87077035136017
3922.835,5.516870745691988,37.72045299687504
3923.7373,5.525380544596313,39.29135041933236
3924.642,5.535154116301708,33.49386724192999
3925.5452,5.545535923037274,34.165733528122935
3926.448,5.555169031810413,39.263521155485485
3927.3535,5.562965840820622,38.90811227543288
3928.257,5.568325300043491,37.44881822488708
3929.1628,5.57063259258872,42.07303367385292
3930.0667,5.568734610253047,50.32323167148253
3930.9731,5.561538601987237,32.77989546919692
3931.8774,5.5490481429795215,40.971862501033996
3932.782,5.532520529731371,42.22143967918752
3933.6887,5.513826168780673,46.44520669236749
3934.5938,5.494857353882419,34.28436509366937
3935.501,5.4770741879535985,34.47597334954036
3936.4062,5.461824184126697,40.24725695978393
3937.3142,5.449609090360171,47.57459874328142
3938.22,5.439865009245012,33.978637320953084
3939.128,5.430797362697061,42.236488446898086
3940.0342,5.420149075148864,47.4446756287562
3940.9407,5.405396113389804,36.27621238523818
