wavl,flux,ivar
3566.9744,0.9747151019633163,666.3955023376768
3567.795,0.9714526538340252,616.0129251029315
3568.6177,0.969188268969961,556.6331498217962
3569.4385,0.9683731982970996,581.8092562689046
3570.2617,0.9690467275294173,526.8121807985005
3571.083,0.9707381833529216,573.7839549572732
3571.9065,0.9727339771510018,599.5094271767471
3572.7283,0.9744275045223506,651.1418233740272
3573.55,0.9754935187880691,512.4835747664781
3574.374,0.9757546029349159,431.31627499877965
3575.1963,0.9750582561974235,740.0966987434025
3576.0208,0.973323589202675,599.1824880392635
3576.8435,0.9707253593337278,659.3884379523936
3577.6682,0.9677592379880229,646.6766066752907
3578.4915,0.9651284004751077,489.23471174104037
3579.3145,0.9633108117518207,635.5307559971894
3580.14,0.9622170439129445,745.3513861837695
3580.9636,0.9612208907661904,609.6119666908602
3581.7893,0.9596324283753137,523.1704515626549
3582.6133,0.9573303126336717,574.7801141451188
3583.4395,0.9549089992438752,675.0544907754123
3584.264,0.9532685884722143,689.6667474871165
3585.0884,0.9528891396741518,550.9768709558662
3585.915,0.9535299286151637,622.6969025578773
3586.74,0.9544383864527562,579.5459853555961
3587.5671,0.9548240923206629,584.3723450208405
3588.3923,0.9541939192860805,550.2126027153123
3589.22,0.9525012079293982,576.5381007876609
3590.0457,0.9501678245611239,540.3227088883838
3590.8716,0.9479130033040443,631.67150264175
3591.6995,0.946480073164021,628.4722384318457
3592.526,0.946325511309978,536.1136380914288
3593.3542,0.9473675517853312,605.8552731230313
3594.181,0.9489147251206169,488.10013354521175
3595.0098,0.9498976515732853,555.5380337128489
3595.8367,0.9494055701159833,519.5035701816412
3596.6638,0.9472801548618025,726.9797923883475
3597.4934,0.9441768119241994,489.8960709207365
3598.3208,0.9410686690131582,720.5930986442885
3599.1506,0.9385310694165059,538.1519139767178
3599.9788,0.9366495913238938,551.1766702334969
3600.8088,0.9353464592823271,829.8331196487995
3601.6372,0.9347788635373971,567.7500554859846
3602.4678,0.9352391013823877,654.4899343294646
3603.2964,0.9367809142986734,589.101272399373
3604.1252,0.9389847846474814,516.5498501532509
3604.9565,0.9411143909059894,596.5146586105872
3605.786,0.9425148887701027,639.022565350888
3606.6172,0.9429894438372374,622.6968286074722
3607.447,0.9427509885056979,550.014510832963
3608.2788,0.9420827974835826,520.5805536402862
3609.109,0.9409960073734327,687.6808805289178
3609.9392,0.9392063872490305,660.6824591185407
3610.7717,0.936458470388783,504.7321651635025
3611.6023,0.9329253292912116,579.6325213793398
3612.435,0.9292243238619093,612.2719640890068
3613.266,0.9261564194715624,635.9447686223579
3614.0994,0.9242044747953612,614.6410312659054
3614.9307,0.9233926210055956,587.8305527029563
3615.7625,0.9233930604279235,524.1738780453832
3616.5962,0.92380691589753,701.9766444702371
3617.4282,0.924297273677053,536.1624365616124
3618.2625,0.9246303986917294,602.0643334648761
3619.0947,0.9247060885377623,576.9386369314136
3619.9292,0.9246036666037162,683.8611063706319
3620.762,0.9245300326310637,543.3405758706521
3621.595,0.9246774055554952,514.9120363165553
3622.4302,0.9251009516606208,685.0873201060823
3623.2634,0.9256899815721819,541.9547274103381
3624.0989,0.9262408032441111,580.6510884003569
3624.9326,0.9265141347373487,564.2537358565517
3625.7686,0.926219187544878,680.8900902038537
3626.6028,0.924936394979653,552.2229990038402
3627.437,0.9221972207163132,662.6901650678819
3628.2734,0.9178143587043415,602.0756457814848
3629.1082,0.912269889306766,579.6053578695053
3629.945,0.9065540984613086,550.6106192017226
3630.78,0.9017358487117878,600.4622118877744
3631.6174,0.8983864398144259,587.1576455439874
3632.453,0.8966153476801803,763.3017199203077
3633.2883,0.896193722431801,533.6782274145984
3634.1262,0.8967148136472953,688.0836983754566
3634.9622,0.8976511149199479,616.4650219912637
3635.8005,0.8985749758793814,534.1625865380852
3636.637,0.8993451073847595,619.1636308271237
3637.4756,0.9000151173507888,638.8143392063248
3638.3123,0.9004931585569995,613.1561145200805
3639.1492,0.9004643135364578,500.9908093032288
3639.9885,0.8996704624127293,774.9363585919147
3640.826,0.8982132452103208,608.4462709417696
3641.6653,0.8964736764350019,650.0967377170655
3642.5032,0.8948317315934957,774.1090364977072
3643.343,0.8934374410176957,660.5520366453273
3644.1812,0.8922708179582671,650.8759166852276
3645.0195,0.8913269160846937,605.095867654778
3645.86,0.8908724705731479,674.9122571690484
3646.699,0.8914842111298846,668.6461533378875
3647.5398,0.893631985874157,609.5690560573493
3648.379,0.8969712463514325,720.1921044256626
3649.2202,0.9001229768451147,679.185434759027
3650.0596,0.9013552172438001,270.65646974798244
3650.8994,0.899877349664233,610.9398038318396
3651.7412,0.8963676431481461,660.7646773598584
3652.5813,0.8923579721680063,648.3623056075963
3653.4236,0.8889877840981321,629.7751400800939
3654.2642,0.8864683654796739,633.4708457419832
3655.1067,0.8843352760611198,543.0368127133407
3655.9475,0.8821647795751635,690.4475498729021
3656.7886,0.879908308595814,788.3688404363113
3657.6318,0.8777970889532499,658.0732546127068
3658.4734,0.8760211224814844,697.9898445738537
3659.317,0.8745101439464541,697.2801664644004
3660.1587,0.8731029918065445,689.1785711606366
3661.003,0.8718172869728896,707.6873625700493
3661.845,0.8710027516901642,704.6748965000489
3662.6875,0.8710976902439945,821.9680399361201
3663.532,0.8722407071174776,741.9015937841253
3664.3748,0.8739968409771066,636.0658249389866
3665.2197,0.8755092255246264,592.7555045278672
3666.063,0.8759287633859058,598.4542895450244
3666.9084,0.8749078146719846,625.5284904298634
3667.752,0.8728043656309642,770.893423141046
3668.5977,0.8704911125849374,742.5873149160826
3669.4417,0.8689078991441233,748.2606631016932
3670.286,0.8684874336421586,716.6817660547164
3671.132,0.8689283184920825,764.1058377785907
3671.9768,0.8694037699918562,702.2006693371065
3672.8235,0.8690775767499762,631.8824881042564
3673.6685,0.8675197128297747,762.9420495242057
3674.5156,0.8648162494563052,733.0816579900898
3675.3608,0.8615102119751115,628.759292132566
3676.2063,0.8583850254941635,810.9885066371075
3677.0542,0.8562464622763796,683.4792231166743
3677.9,0.8556339674585495,661.3241452610032
3678.748,0.8565122762204429,877.7538816304636
3679.5945,0.8581860134422281,685.4175616356563
3680.4429,0.859526080446772,750.4588664555686
3681.2896,0.8594907722506184,586.2452755092646
3682.1365,0.8577176832278182,716.4805484194908
3682.9856,0.8546948154146856,720.1036673482006
3683.8328,0.8514536620933915,621.1537717952415
3684.6824,0.8489108464146276,754.2681048850876
3685.53,0.8474894647847275,813.0852434671424
3686.38,0.8470136485265556,855.988619220785
3687.2278,0.846965687380645,882.2337885745359
3688.0762,0.8468178397720408,779.5079332328261
3688.9265,0.8463823230545432,658.1756367219945
3689.7751,0.8459920932829421,740.4125678763492
3690.626,0.8463135885127512,894.4819679822293
3691.475,0.8478596281298117,809.8642876964269
3692.3264,0.8505835723512379,661.9360441552795
3693.1758,0.85383405955827,781.4561249734701
3694.0254,0.8567269993110462,598.5484440088708
3694.8772,0.858485896565414,680.0742859486597
3695.7273,0.8586369191605251,705.5541176781347
3696.5793,0.8571054561791042,471.74066081964463
3697.43,0.8542557303448015,776.6513670568997
3698.2825,0.8508460329319306,737.9654277145912
3699.1333,0.8478499204004315,738.3568582644535
3699.9841,0.8460110141959468,770.4457141100715
3700.8374,0.8455426579991161,664.5332017763877
3701.6887,0.8461301026447581,736.5640718416844
3702.5425,0.847247346782205,652.8614735305767
3703.3943,0.8484684715223909,728.3160847640925
3704.2483,0.84952764854537,723.9089630417762
3705.1003,0.8501315473852818,788.0083574961956
3705.9526,0.8498947486390899,823.1475069843424
3706.8074,0.8484883531239706,712.4508622810073
3707.66,0.8459386122832758,597.6940139794987
3708.515,0.8426834439570652,712.7149716675394
3709.3682,0.8393730765849369,680.7654544583576
3710.2234,0.8364295904258993,930.0941567848926
3711.0771,0.833944163404616,745.7090344735443
3711.9307,0.8318214750269337,770.644474053946
3712.7866,0.8300391511913406,689.9262442330465
3713.6409,0.8286650434493932,657.9565883841422
3714.4973,0.8276561295391881,644.6441705431414
3715.3518,0.8268062290969039,860.2442291363034
3716.2085,0.8258197943625359,713.6190922006973
3717.0635,0.8244644452353718,702.5370649762856
3717.9185,0.8226325189064028,811.3695116027735
3718.776,0.8204015752352665,686.2639369404802
3719.6313,0.818130627458084,688.1093249051241
3720.489,0.8164217189850023,732.6452283496764
3721.345,0.8159690332431319,721.5745093828281
3722.2031,0.8171810190767331,830.5779994987895
3723.0593,0.8198785198730126,835.9873536382194
3723.9158,0.8233043019426721,818.0860406050663
3724.7747,0.8264779134670599,819.0348544032828
3725.6316,0.8286516714248598,866.3063202906957
3726.4905,0.8296286990082528,923.0893407332928
3727.348,0.8295943426983058,772.3397460943362
3728.2073,0.8287875342303025,823.3253477032235
3729.065,0.8272821922123142,696.6833871798996
3729.9229,0.8250763180523598,734.7119901263354
3730.783,0.8223615521608832,771.380622470698
3731.6414,0.8196873198794751,739.2376228000469
3732.5017,0.8177561057305901,659.1928510147643
3733.3604,0.8170921782512351,847.7136463581551
3734.2214,0.8176890759294754,822.87394109409
3735.0803,0.8189619006934655,860.9702972128214
3735.9417,0.8200086703098084,754.5568323208508
3736.8013,0.8200093652877484,766.0176684704193
3737.661,0.818601369454869,748.5774899707826
3738.5227,0.8160022122621051,793.3920052648177
3739.3828,0.8129239803893561,840.5112251624821
3740.245,0.8101993171868376,744.117845194144
3741.1055,0.8084365280803925,895.2639870024011
3741.9683,0.807734926591179,742.7987519393478
3742.829,0.8077746652616973,876.3382719082696
3743.69,0.8080947266753663,715.3286584218588
3744.5532,0.8084009627991529,690.8894144458958
3745.4148,0.8086289873947483,776.1977462207176
3746.2786,0.808797196335702,806.835354849181
3747.1404,0.8088714315986122,806.6630041652975
3748.0044,0.8088386402228174,811.1614721279177
3748.8667,0.8088720316420674,815.307718189161
3749.729,0.8093401762897781,836.9181760275286
3750.5938,0.8105785536490525,657.9985274983653
3751.4565,0.8125874370790007,840.5470479407346
3752.3215,0.8149768459683898,559.0134786464249
3753.1848,0.8171279002930328,877.415447456417
3754.0503,0.8185215645596248,744.4752687465599
3754.9138,0.8188841642038287,794.4292525024755
3755.7776,0.8182241453238837,641.1000745709827
3756.6438,0.8167411149222339,866.2212695024849
3757.508,0.8147942776138482,761.8944070115922
3758.3745,0.8128452513009704,742.1164242156925
3759.239,0.8114089450763025,881.3833971209126
3760.106,0.8108281216432607,709.9310089916672
3760.971,0.8110751414132035,756.9464735272626
3761.8362,0.81168667113777,861.8385124821692
3762.7036,0.8120210676201094,762.2167632659372
3763.5693,0.8116776424117197,707.1014050825743
3764.437,0.8107640690009656,997.1673922145337
3765.3032,0.8097625268722387,762.0469276005227
3766.1714,0.809100065530001,875.6399205276628
3767.0378,0.8088378534961942,878.6030551488853
3767.9043,0.8086750217139057,984.8685685901918
3768.7732,0.8082042884761629,679.116562849128
3769.6401,0.8071531115915356,885.2943915204048
3770.5095,0.8054667977949356,766.1948920538688
3771.377,0.8032980955591373,808.2187423946526
3772.2466,0.800865339677721,780.8459935087715
3773.1145,0.7983588040177991,775.1844735440216
3773.9824,0.7958421265834523,862.9065355068744
3774.8528,0.7933238997978935,920.5506946820867
3775.721,0.7908775596736063,914.5727199954097
3776.5918,0.7886094292270772,814.7370204145432
3777.4604,0.7866486827742841,885.6106688742315
3778.3315,0.7850575819445187,843.8473013094689
3779.201,0.7838978856235705,904.3246067284666
3780.0703,0.7832440714475513,810.4493955195442
3780.942,0.7831933023606255,723.426461524721
3781.8118,0.7837701328155166,793.3895058810857
3782.6838,0.7848038000281754,770.5569578260881
3783.554,0.7859308844913977,784.0264848676877
3784.4265,0.7868420593087322,885.2398842384727
3785.297,0.7874873366199717,845.2527526516866
3786.168,0.7880173276839147,778.4827658930475
3787.041,0.7884850504099219,971.9630148944849
3787.912,0.7887320356565022,864.575728041266
3788.7856,0.7886072744297615,777.267273871169
3789.6572,0.7882032714251124,839.7155465707067
3790.531,0.7877972542974238,1003.2515724693197
3791.403,0.7875738815051881,785.939380902091
3792.2754,0.7874457912444343,790.934733955735
3793.15,0.7871495145335855,843.0167617127905
3794.0225,0.7864479004585898,1000.5185942518394
3794.8972,0.78522073202068,769.432687966473
3795.7703,0.7834657669633897,906.5041354938917
3796.6455,0.7812751745350099,884.2273119655836
3797.519,0.7789026761576416,834.0453819089935
3798.3926,0.7767113759163123,883.6342364607143
3799.2686,0.7750613523824805,886.472566201814
3800.1426,0.7741736371944374,803.5352775465237
3801.0188,0.7740349591986563,880.785619237071
3801.8933,0.7744384734952974,806.0718693940662
3802.77,0.7750549667910818,863.3612642699852
3803.6448,0.7755267377830717,864.9382318363323
3804.522,0.7755642889757361,755.6213016026247
3805.3972,0.7749890494868837,993.7930641901647
3806.2727,0.773755071659564,806.5222611578863
3807.1504,0.7719800603811365,939.3618201179519
3808.0261,0.7700220358507934,909.9559275716719
3808.9043,0.7684303951661399,986.6477915444649
3809.7805,0.7677737955822126,847.6264805448086
3810.659,0.7682780378588938,1023.1827874609844
3811.5356,0.7696199598501094,920.3359710676332
3812.4126,0.7710611034533986,785.6655025687071
3813.2917,0.7718877400880795,1045.8756299801994
3814.169,0.7718304775385322,969.3955668149534
3815.0483,0.7711473111629894,821.9941270545953
3815.926,0.7703203191427602,893.5898945101679
3816.806,0.7696839004306346,829.9020271644611
3817.684,0.7693086031101982,716.0336894556867
3818.5623,0.7690871283790713,803.3151085639482
3819.4429,0.7688403005996588,888.9633477238208
3820.3215,0.768336221357056,807.3402822685908
3821.2024,0.76734261650391,788.3831563700489
3822.0815,0.7658070627773067,935.3369313027791
3822.963,0.7639737493525004,1013.3582342818027
3823.8423,0.7623290815273853,879.7434541902009
3824.722,0.7613069829102115,935.1125537452953
3825.604,0.7610680359093819,898.217024751241
3826.4841,0.7614623610738729,829.03925521494
3827.3665,0.7621894823408701,870.1948168444474
3828.2468,0.7629634831947604,971.494462874815
3829.1296,0.7635431833616456,887.8333669478535
3830.0105,0.7636470254884864,972.7425767458581
3830.8916,0.7629871263212389,914.6635029094199
3831.7751,0.7614245475910164,857.802500306784
3832.6565,0.7591418297723136,766.4198218536045
3833.5403,0.7565790941445679,1046.6572213657173
3834.4224,0.7542511554917612,928.63852358338
3835.3064,0.7524301706503235,1028.0289529699764
3836.1887,0.7510629184635035,846.4860947384788
3837.0713,0.7499050861194017,847.5818864458091
3837.956,0.7488691268032772,1236.1747777329228
3838.839,0.7482118842436107,915.2008009431551
3839.7244,0.7483285555385719,921.5003327521857
3840.6077,0.7493564728676867,895.4313931403406
3841.4932,0.7510001404850022,884.5960628051208
3842.377,0.7527695481287972,895.920488203595
3843.261,0.7543874589598351,944.0621705219465
3844.1472,0.755848691739352,1008.3074455798198
3845.0315,0.7571334630356563,740.355284018991
3845.9182,0.7579839744340434,1074.725004886091
3846.803,0.7579637829678787,804.2361286180782
3847.69,0.7568014507260041,914.4498217583745
3848.5752,0.7546876031785436,1004.509642933417
3849.4604,0.7522915760703357,910.4000017044589
3850.3481,0.7504784104561222,862.8892098062292
3851.234,0.7499179937063815,1011.3212586940754
3852.122,0.7508235987133407,856.0934329367569
3853.0083,0.7529927817616592,926.0023625541526
3853.8967,0.7559433082561318,945.9088784036908
3854.7832,0.7589511751573838,825.8517088160547
3855.6702,0.7612275812711605,879.1044202259031
3856.559,0.7621724993671404,824.7398915179735
3857.4463,0.7616513235879169,782.5052978521883
3858.336,0.7600141460469841,946.78918717588
3859.2234,0.7578506296405159,887.5251111498168
3860.1135,0.7556398992852839,796.8552838494339
3861.0015,0.7535893059984716,930.6420384317992
3861.8896,0.7515796515709248,896.6808547950496
3862.7803,0.7493573252772857,920.4405758241951
3863.6687,0.7468382861744978,923.7913509680236
3864.5598,0.7442766268449135,989.3994421069921
3865.4487,0.7422272132745141,993.4618022177827
3866.34,0.7410922585333858,998.2361778587535
3867.2297,0.7407644834989855,988.1177077140725
3868.1213,0.7406226619268022,994.3569629618279
3869.0112,0.7400276209976288,892.7640733865687
3869.9014,0.7388231906111532,1011.011178285241
3870.7937,0.7373730041710861,983.8372542261399
3871.684,0.7361429001534718,984.0659380422026
3872.577,0.7352319471245923,936.4160321531072
3873.4678,0.7343474794280656,1122.232024925807
3874.361,0.733114084204304,907.3515855769002
3875.2524,0.7314560491360222,906.0124147328355
3876.1438,0.7296653304836658,1014.8766432759078
3877.0376,0.728185873013151,1032.917665111391
3877.9297,0.7273047632698803,976.6774010154206
3878.8237,0.7269735411196321,832.890225798437
3879.716,0.7269187109484407,1147.0227712963122
3880.6108,0.7268291499670457,952.7945754866961
3881.5037,0.726484807551516,954.9933403560317
3882.3965,0.7257905241270542,1087.1788753587655
3883.2917,0.7247580658563876,1031.0583401332694
3884.185,0.7234547240058434,1212.3107485696808
3885.0808,0.7219119934587298,959.120963771516
3885.9746,0.7201657123025206,1004.9001438398815
3886.8706,0.7183271176647178,1007.0781120593734
3887.765,0.7166550692610731,1017.74310541312
3888.6592,0.7154212140408608,1101.686940863059
3889.556,0.7147710008769427,1042.6954778053623
3890.4507,0.7146762218928816,911.5599019893771
3891.348,0.7149907598631934,891.0117854852961
3892.243,0.7155381976206637,971.2034393944131
3893.1406,0.7161772251388994,1041.5726592974
3894.0361,0.716844256091025,903.6374451882657
3894.932,0.7175866389333371,1138.6602219428592
3895.83,0.7185116529093374,924.3911300082765
3896.7263,0.7197236608454678,984.5274547653881
3897.625,0.7213931753470978,1015.6913743734284
3898.5215,0.7238718208482743,1150.9647632157646
3899.4207,0.7277597497496835,959.3491186171924
3900.3176,0.7335324004871351,927.800258392819
3901.2148,0.7409716431197386,960.2101271220771
3902.1145,0.7486454407169502,983.0199231625177
3903.0122,0.7541568515177669,839.7999021523025
3903.912,0.7555807152816844,932.5110293872457
3904.8103,0.7527761027847145,894.8760972010484
3905.7107,0.7475847824913541,921.4398925101186
3906.6094,0.7425851743292274,1005.6329391139185
3907.508,0.7394635995316283,901.8217814209759
3908.409,0.7384258980435482,836.9000017116759
3909.308,0.7386241732310671,843.9318252795622
3910.2097,0.7389811208026416,944.5954582994048
3911.1091,0.7388423187829553,879.1903207894676
3912.011,0.738190058626495,929.0720207142195
3912.9111,0.7374256082154462,1074.6469460991866
3913.8113,0.7369189320953718,979.390021209999
3914.7136,0.7367124069310071,1039.544128180041
3915.6143,0.7365899199731142,1004.9586810782741
3916.517,0.7363700367774918,1061.745445214414
3917.4182,0.736090303481216,924.1953555470951
3918.3215,0.7359050463868027,907.7515969681531
3919.223,0.7358695557530356,1059.419947883142
3920.1245,0.7358503033573235,1042.8547027427676
3921.0286,0.7356452485969907,850.2916175872666
3921.9307,0.7351778164585445,941.4736314662099
3922.835,0.7345900008268338,1066.5343031733553
3923.7373,0.7341870548719198,902.1610408996883
3924.642,0.7342610853656875,1042.3637151912208
3925.5452,0.7349238821163085,858.810161266652
3926.448,0.7360171913693075,962.0342046199754
3927.3535,0.737152146465327,922.1404256623781
3928.257,0.7378402391302192,882.7094667565555
3929.1628,0.7377075632884845,964.8169345590638
3930.0667,0.7366151488015408,978.5330939831863
3930.9731,0.7346275820586409,1067.28122378187
3931.8774,0.7319240969052845,1028.8606744572473
3932.782,0.7287461570612175,926.5600243596471
3933.6887,0.7255060954166977,931.6452127571843
3934.5938,0.7228162641309435,1022.2961947740939
3935.501,0.7212030550009862,1014.1779578218491
3936.4062,0.7208139393447166,1093.4544632187276
