wavl,flux,ivar
3566.9744,0.14563979326343457,17274.72036749147
3567.795,0.14579718576234396,7756.782553420181
3568.6177,0.14562797178362635,22519.14836684891
3569.4385,0.1452500301739053,6728.085427012604
3570.2617,0.1448359934426151,14016.089073277359
3571.083,0.1444738082218524,10176.416646263446
3571.9065,0.14409879656593103,9401.155789289496
3572.7283,0.14353397787137862,3465.3680510955446
3573.55,0.14259963251749497,25264.11535875821
3574.374,0.14128044713782564,6487.685047788001
3575.1963,0.13984939799779114,7697.749695572581
3576.0208,0.1387819409489053,16214.11009274782
3576.8435,0.13855346874955454,8504.417615099077
3577.6682,0.1393713628844395,5856.458441573104
3578.4915,0.14103440883075982,6326.301082085445
3579.3145,0.14300102885227692,6532.809132600497
3580.14,0.1446716172479123,5589.701440000118
3580.9636,0.1457025347642486,9573.52594431591
3581.7893,0.1461646677408293,7102.283221204418
3582.6133,0.1463827909821573,8109.142777545951
3583.4395,0.14673673698916043,7102.303396465078
3584.264,0.14753978023156666,11486.090887387687
3585.0884,0.14896227625237124,17866.061784957972
3585.915,0.15090420314330216,6248.492198759786
3586.74,0.1529051599375152,11267.046436353477
3587.5671,0.1543197111574265,8297.506227053616
3588.3923,0.15460065741486054,7994.7643040358425
3589.22,0.15359234552897286,10525.657415493893
3590.0457,0.1515873992586168,11746.547453071125
3590.8716,0.14915529617641962,10023.702661382778
3591.6995,0.14688416933134163,6672.850160288348
3592.526,0.14517777937569273,16372.597957862254
3593.3542,0.1441326781727533,22566.45292468325
3594.181,0.1436141580743716,8006.077199762759
3595.0098,0.14338250618461007,6985.451463278887
3595.8367,0.1432651572398798,14541.907295128405
3596.6638,0.14322275802838283,9056.655574659484
3597.4934,0.14326543286926827,23356.479657914515
3598.3208,0.14327396204297232,9852.173665400322
3599.1506,0.14294691025720951,6513.820605347228
3599.9788,0.1420216527926127,12512.926746678411
3600.8088,0.14058603465826994,18815.049104065132
3601.6372,0.13914986360010342,9149.591714779528
3602.4678,0.1382990791565741,12969.930312435643
3603.2964,0.1383023251667112,6426.202073777751
3604.1252,0.13895614711167167,9518.199245301657
3604.9565,0.13979134525163725,7530.602885469669
3605.786,0.14035608173944977,4678.91661255078
3606.6172,0.140394920775193,8741.048697150214
3607.447,0.13982592485872217,16968.89537048795
3608.2788,0.13867236620908158,5762.023790499645
3609.109,0.13707301013978365,3729.468906174747
3609.9392,0.13531212866951436,21004.142862762095
3610.7717,0.1337857632352149,7250.873400702242
3611.6023,0.13284731401778282,12103.487094007056
3612.435,0.13262859603943544,10129.869838679451
3613.266,0.13305608516705114,5932.340620071789
3614.0994,0.133954321647145,6719.6287563975875
3614.9307,0.13509269978409602,16848.997142987708
3615.7625,0.13616455257768886,20501.677664119274
3616.5962,0.13680823729434607,7632.178574874838
3617.4282,0.13678909844896808,16753.921495881415
3618.2625,0.1361901980190028,17984.470133160885
3619.0947,0.13538208586944653,12119.323263026248
3619.9292,0.13476954312604256,7502.4725229300175
3620.762,0.13455162278937238,13747.845226955771
3621.595,0.13462843839447092,9899.314791582501
3622.4302,0.13470149511315802,7798.1078438628865
3623.2634,0.1344503924579715,17503.724705956527
3624.0989,0.133711509775998,7531.6541755330445
3624.9326,0.13259094618934394,8348.788953536347
3625.7686,0.13142644121426733,10182.900851340575
3626.6028,0.13065948517979117,5942.8033467649275
3627.437,0.13064911786210578,8924.432063103011
3628.2734,0.13155936081466485,35015.99018988138
3629.1082,0.1332329064554877,10568.538138882635
3629.945,0.13513734451140594,9263.175891368472
3630.78,0.13646760840345648,9142.268001472174
3631.6174,0.13657550005468488,7559.306680906989
3632.453,0.13538022246537706,8965.780819897805
3633.2883,0.13344122333109393,6996.542211946926
3634.1262,0.13152799731778003,6758.021394819273
3634.9622,0.13009290158111833,13611.801787830042
3635.8005,0.129051471338021,10113.89271836307
3636.637,0.12813786156460819,9209.832814662304
3637.4756,0.12735362588841095,50638.7229328345
3638.3123,0.12710998850990032,15269.963402118661
3639.1492,0.12786769844205853,7039.483470040414
3639.9885,0.12969933599658914,13598.558669876344
3640.826,0.13213755942838065,26296.942636988762
3641.6653,0.13449627201092018,12371.41002489722
3642.5032,0.1362514702086064,9072.620749524041
3643.343,0.13730641182119835,6970.01935482793
3644.1812,0.1379089778737691,8690.266243457541
3645.0195,0.1384417916389603,11026.364679333483
3645.86,0.13917326361312904,12881.019165440128
3646.699,0.1401025812721911,7154.093980862517
3647.5398,0.1409624677354979,8911.069402995254
3648.379,0.14135069091218852,7794.534086551399
3649.2202,0.140984619918071,10899.090970610894
3650.0596,0.13990478502749765,11070.98765863504
3650.8994,0.13849256253120762,9117.562755557268
3651.7412,0.13726275192563925,10956.686510682046
3652.5813,0.13656539797304101,11680.940753748097
3653.4236,0.13639287509734885,12230.698930802972
3654.2642,0.1364735961540556,10682.29634430205
3655.1067,0.13651867076436824,14190.249718029874
3655.9475,0.13642945105404605,14163.350041148838
3656.7886,0.13629265211910924,9374.086137215327
3657.6318,0.1361909457586192,9453.06755324628
3658.4734,0.13603650324890504,8967.571679185061
3659.317,0.13561434161214253,21789.718766283517
3660.1587,0.13482184762832752,11010.67352268112
3661.003,0.1338574322821782,12233.316035539152
3661.845,0.13318715965670241,13590.429091798862
3662.6875,0.13324023752655104,8306.53600238263
3663.532,0.13411846564333438,8020.148919895766
3664.3748,0.13551679637427166,7138.7578930832
3665.2197,0.1369684565208487,27350.60013344002
3666.063,0.13813458847302929,12117.65782544705
3666.9084,0.1389571111241473,12741.898791658148
3667.752,0.13953800576373218,17876.4216630299
3668.5977,0.13999629622725707,19635.577719213827
3669.4417,0.14039475772638618,34033.51705188869
3670.286,0.14077793420419996,5230.396592391394
3671.132,0.14117414352535648,7157.288980199999
3671.9768,0.14152082294197885,7896.961208042605
3672.8235,0.14159919485657474,6903.188793950661
3673.6685,0.1410934856552999,7182.289103132139
3674.5156,0.1398125706675047,9369.49848959939
3675.3608,0.13794607700657924,11639.080276302959
3676.2063,0.13608458106555796,12901.865044983671
3677.0542,0.1349364106199307,14924.390754898079
3677.9,0.13485158906427197,9306.007881059662
3678.748,0.1355294174799748,24446.475268847244
3679.5945,0.1362742975170492,5911.068033804716
3680.4429,0.1365940888923846,14800.916250636052
3681.2896,0.136534038996136,7168.271535788119
3682.1365,0.1364212349856567,15925.081434500655
3682.9856,0.13632729503393745,6468.522520885045
3683.8328,0.13588018124676157,6036.26764635704
3684.6824,0.13459087523919644,23985.145060641233
3685.53,0.13233013094811066,12237.414404697838
3686.38,0.12947513551159248,17909.0707436614
3687.2278,0.12680374664710936,5327.622873681309
3688.0762,0.12517246605625765,18966.828755535164
3688.9265,0.1252412528190048,12443.358770780715
3689.7751,0.1271650260641385,32579.171646071693
3690.626,0.13049061450740432,20221.792316434992
3691.475,0.13433208346689196,10133.500587699662
3692.3264,0.13785046978220405,33496.86555509613
3693.1758,0.14056392977430437,13785.201189361087
3694.0254,0.14253467906886674,6594.321556578246
3694.8772,0.144198281442017,7899.077505693835
3695.7273,0.14604014087535672,6383.296061186506
3696.5793,0.14827985396788318,9839.634426408418
3697.43,0.15067816514212137,13448.768131579769
3698.2825,0.15270191182844578,9484.388836428225
3699.1333,0.15380509061785283,14418.914247024042
3699.9841,0.15373349684436372,9188.27034048187
3700.8374,0.1525808491574443,11725.80520282721
3701.6887,0.15070194741467657,23140.61729512222
3702.5425,0.14849122418855354,15606.407832336954
3703.3943,0.1462420203046663,10885.573112672373
3704.2483,0.14402890250315034,14780.308159724613
3705.1003,0.1417958277078265,11322.112290103982
3705.9526,0.13945935762751852,12597.376749697314
3706.8074,0.1370800057579634,15438.50241763774
3707.66,0.1349207915894696,16212.53053063745
3708.515,0.13325629633639688,8458.59347731442
3709.3682,0.13219242880039495,9935.195562993711
3710.2234,0.13155754084773932,11272.707136253151
3711.0771,0.13109861345866608,10486.948453982905
3711.9307,0.1307540584768194,12465.905970284715
3712.7866,0.13079264377639171,21670.7793537951
3713.6409,0.13165394747412273,16059.927930933218
3714.4973,0.1336039133822624,17242.228776121785
3715.3518,0.13644733737039458,13353.691037276363
3716.2085,0.13959904173850812,7923.716793921514
3717.0635,0.14234298809053295,8131.283505866668
3717.9185,0.1442076141698679,11433.362399398315
3718.776,0.14506722243837977,16902.03832259278
3719.6313,0.14506580981593703,8201.62547120452
3720.489,0.14447098815264767,8303.260690700494
3721.345,0.14353821823096086,9262.681062018479
3722.2031,0.14245234604369592,9452.388051790322
3723.0593,0.14136021372771615,8570.851762944028
3723.9158,0.14036481135166334,10790.00165555006
3724.7747,0.13949676043419712,17025.797616051623
3725.6316,0.1386951658451034,9974.688225560138
3726.4905,0.1378573941012221,9706.063996083105
3727.348,0.13696860513629758,11064.920509318035
3728.2073,0.1361223804129636,21433.23259542699
3729.065,0.13543254187256756,14320.563537930886
3729.9229,0.13488210007539878,13428.224566071536
3730.783,0.1343194166379971,11670.210600132486
3731.6414,0.1336327886530232,20199.9967733427
3732.5017,0.13294925624855355,14088.389786140524
3733.3604,0.13265596605914193,11739.696989847862
3734.2214,0.1331257062233849,13954.342527237844
3735.0803,0.13436599957807666,16029.145270769533
3735.9417,0.13591482338019545,15584.971283199582
3736.8013,0.1370804855891705,8981.767307204214
3737.661,0.13739323204995657,17445.742688505547
3738.5227,0.13683095723318173,13839.005222110285
3739.3828,0.1357493951478429,13360.13549185272
3740.245,0.134629558378679,8464.959836302563
3741.1055,0.13389076295164926,11310.41488616124
3741.9683,0.13375705865528292,27594.30856813123
3742.829,0.13419751333969976,14648.914193625462
3743.69,0.1349166206019912,11686.149713118142
3744.5532,0.13548387674212506,8467.266223027484
3745.4148,0.13555120679718846,19638.615030801964
3746.2786,0.1350416097208387,15367.923020787073
3747.1404,0.13415288024601524,14546.188550356701
3748.0044,0.13319806430530579,9292.020942415616
3748.8667,0.13244932619774147,9227.447995217948
3749.729,0.13203046824657047,17956.375406621923
3750.5938,0.13192029520671816,17551.08129638156
3751.4565,0.1320379746746546,35931.248829666176
3752.3215,0.1323908796978739,8771.74036018936
3753.1848,0.13313963072376317,17251.946320054274
3754.0503,0.13447316188798086,16584.078523227632
3754.9138,0.1363739584868014,16911.487787124723
3755.7776,0.13857394978493562,8112.90978704051
3756.6438,0.14069540428141636,5332.3607684063745
3757.508,0.14241074185653557,17204.80801222579
3758.3745,0.14352912665688747,12710.27635847144
3759.239,0.14393664294731331,13176.765027586742
3760.106,0.14363348138570092,13402.546243061306
3760.971,0.14279000516442303,13015.187250022705
3761.8362,0.14174635750755418,12146.176768710868
3762.7036,0.14089729036749649,10290.373198754558
3763.5693,0.14052705840780302,16717.87082696522
3764.437,0.14066950830302477,11743.16341591084
3765.3032,0.14111729730822814,11949.361456444272
3766.1714,0.1415725628298945,8595.375349959311
3767.0378,0.14183329469796271,12830.532529617394
3767.9043,0.14187000682499654,14052.686259060094
3768.7732,0.14174570991544272,10958.758758557924
3769.6401,0.14153246751988374,8367.398665261826
3770.5095,0.1412997072198793,21956.702807899917
3771.377,0.14111103883995785,9515.272896945891
3772.2466,0.14093977057720067,11761.912697558579
3773.1145,0.14060577570618096,14572.85394026199
3773.9824,0.13985100263365208,9841.708291041421
3774.8528,0.13852618970762282,14933.804206485758
3775.721,0.1367439806781625,11074.434599472079
3776.5918,0.13484062756392817,11596.398151164212
3777.4604,0.1332809054325849,18935.895954850937
3778.3315,0.13242886409716653,24154.410840910066
3779.201,0.13238754599015384,11781.479685525186
3780.0703,0.13292008868218108,13271.64188793259
3780.942,0.13364046750439681,12187.823879286547
3781.8118,0.134303350997029,14794.782895796825
3782.6838,0.13493836118767383,16565.505960892282
3783.554,0.13566358076877713,13755.419064718028
3784.4265,0.13648320337922587,12191.757346663333
3785.297,0.13729452535382503,9507.349423845695
3786.168,0.1380575842102614,20106.905249874628
3787.041,0.1387848055358717,16391.731303799475
3787.912,0.13936262757761722,12523.846583127832
3788.7856,0.13948957338521728,12733.496054919033
3789.6572,0.13884087982298948,15089.701180580389
3790.531,0.13733558630074338,16097.69667074173
3791.403,0.13528137303603743,10925.44588604502
3792.2754,0.13325090966347988,15267.887326010483
3793.15,0.13180302270489092,18724.66566272809
3794.0225,0.1312092184688012,11126.718844282965
3794.8972,0.13137738866582435,9326.901588924788
3795.7703,0.13205973490085032,14641.553899429628
3796.6455,0.1330708354772791,9834.347042292484
3797.519,0.1342925963892905,13526.111394845551
3798.3926,0.13554533832208354,8317.583674819576
3799.2686,0.136509157622446,10735.181851227848
3800.1426,0.13682763895922953,11590.822598344328
3801.0188,0.13631896583431882,19278.51135923241
3801.8933,0.1350882368389961,13669.467245685708
3802.77,0.13349083269188114,8307.97908298907
3803.6448,0.13200821936066087,12766.065255724303
3804.522,0.13103932445962851,16034.082876865144
3805.3972,0.1307871045444815,8701.472154575402
3806.2727,0.1311954505992731,20363.398445072806
3807.1504,0.1319977074976683,11711.466533051209
3808.0261,0.1327945808440974,12544.050606947125
3808.9043,0.1332385452623526,26381.000537466796
3809.7805,0.13324721994811622,17330.02443903409
3810.659,0.13312343381116382,9832.383280801218
3811.5356,0.1333973835329602,11613.128119348787
3812.4126,0.13448799992354737,11039.555366396455
3813.2917,0.13645205936939733,15715.182114320742
3814.169,0.13896339501560523,7566.649408864472
3815.0483,0.14155859588581718,15571.711492420942
3815.926,0.1438194086238182,16818.913887330724
3816.806,0.14551092757642003,13960.388876975781
3817.684,0.1465364375542979,10026.773295813293
3818.5623,0.1469534512413533,18142.91942232523
3819.4429,0.1469437217374101,11432.549887767733
3820.3215,0.14673992163524416,10487.735844623301
3821.2024,0.14650101273742097,10642.951970402171
3822.0815,0.14624954279357183,14057.930043991053
3822.963,0.14590494832426718,13859.81904686446
3823.8423,0.1453622469178382,12493.191947505118
3824.722,0.1445319949152495,10578.235739091357
3825.604,0.1433602808613172,16934.343672403873
3826.4841,0.14185116072372353,13638.127100743674
3827.3665,0.140029717463987,12620.080053319396
3828.2468,0.13793762196701778,8659.943625284139
3829.1296,0.1356040093739456,12586.408675364719
3830.0105,0.13314251174947653,11423.232826269277
3830.8916,0.13073178231786106,16305.659913829375
3831.7751,0.1285428383743111,20159.54122121868
3832.6565,0.12662578077549158,21743.479732300733
3833.5403,0.12485505764772446,13850.28111563849
3834.4224,0.12310175986979603,10985.28573898142
3835.3064,0.1213510188443423,14728.891098652306
3836.1887,0.11978272906854427,17059.635314266474
3837.0713,0.11869808635213433,15985.688737829494
3837.956,0.11843940612375159,15065.884207854288
3838.839,0.11924188224454595,23305.18461174654
3839.7244,0.12106142206608272,26333.954433181552
3840.6077,0.12349569091445192,12200.946508372184
3841.4932,0.12599758370215502,13299.253656892877
3842.377,0.12818412282020478,13250.57104400713
3843.261,0.1301023131252169,13639.994516508874
3844.1472,0.1321064120783983,17067.090604721277
3845.0315,0.13448662511430043,52031.49927838342
3845.9182,0.13718351699304498,20791.492418585465
3846.803,0.13972573421144244,15144.319344469546
3847.69,0.14159939431401322,9940.740083480965
3848.5752,0.14262912687563942,10691.43330592207
3849.4604,0.14318628697004804,11793.007180911392
3850.3481,0.14393065143565426,23057.206644754235
3851.234,0.1453449224850209,14942.515016190206
3852.122,0.1474823528032408,17180.973722775754
3853.0083,0.1500633618034525,10585.71268896964
3853.8967,0.15280799494684055,10129.822813171926
3854.7832,0.15550032805444078,15307.027764585102
3855.6702,0.1579052775111348,11166.134368337263
3856.559,0.15963197498421264,7971.733698986584
3857.4463,0.16024522162722707,8272.116417797724
3858.336,0.15954954877278948,10547.258929972793
3859.2234,0.15776122801299916,15642.478625139061
3860.1135,0.15542872736663293,10979.76606606783
3861.0015,0.15320843701067324,12455.324128363905
3861.8896,0.15155349995057368,18129.43348635996
3862.7803,0.15060797073730545,11565.972555987712
3863.6687,0.15023874065197199,10740.434588954658
3864.5598,0.15013607801465104,11243.486214770268
3865.4487,0.14995300067423145,11654.10837709502
3866.34,0.14941567409086864,14790.093329594103
3867.2297,0.14841341757877966,8640.6323731582
3868.1213,0.14700127610198402,9509.67213232088
3869.0112,0.1453592534598041,9093.56101094008
3869.9014,0.14370754019753076,11495.74456778169
3870.7937,0.14228613732256898,21632.468385725115
3871.684,0.1413259278508822,11964.106236912181
3872.577,0.14089755599112605,16425.30447697035
3873.4678,0.14075890253577822,17885.43445897932
3874.361,0.14035255080329478,14607.262449242124
3875.2524,0.13913309714484398,9031.76951137272
3876.1438,0.13697838849898486,11276.202673615056
3877.0376,0.13431027176087743,18424.173876892564
3877.9297,0.1318299515018456,16513.275372472188
3878.8237,0.1300238150871348,39266.921996947225
3879.716,0.1289468496977901,17660.478118840507
3880.6108,0.1282552849218775,12771.30365291384
3881.5037,0.12747477847976724,13574.521435784884
3882.3965,0.12623057343554867,14690.65017847741
3883.2917,0.12437679395775819,20654.445621275
3884.185,0.12199779547703589,28818.748373839953
3885.0808,0.11924717172248889,24733.17303998462
3885.9746,0.11626154233412055,13827.573462442437
3886.8706,0.11308928509819456,16223.914805247781
3887.765,0.10985577426009677,24731.435322608697
3888.6592,0.10684166432407384,25161.678294879748
3889.556,0.1045067824713905,36276.174366137195
3890.4507,0.10336006183307188,17634.63959118122
3891.348,0.10371241430436552,35394.722038698324
3892.243,0.10554128343436413,39599.04030315069
3893.1406,0.10848804031783921,24133.31646672127
3894.0361,0.11195311776659583,15154.498017264514
3894.932,0.1153392227901393,21536.422728773523
3895.83,0.11819440166728463,23187.62003098463
3896.7263,0.12031867553047398,18138.545594341813
3897.625,0.12189752539976428,12475.392939672176
3898.5215,0.12342292370195841,28159.69206875062
3899.4207,0.12546994294863326,15804.389738252497
3900.3176,0.12827422103327168,19481.641221765367
3901.2148,0.13157992636264415,8099.6486491998185
3902.1145,0.1348147903695342,13578.871446594449
3903.0122,0.1374457166241998,16611.94395286914
3903.912,0.13928886290025766,14444.735157629237
3904.8103,0.14048799366571038,12477.64898868427
3905.7107,0.14143767460593265,8796.517992933901
3906.6094,0.14259442485850138,13867.230378947055
3907.508,0.14430841280498188,11889.05922309371
3908.409,0.14669984111269097,10252.28146417057
3909.308,0.14964887240494462,14583.669100017483
3910.2097,0.15293609719600182,10080.167796634756
3911.1091,0.15626866098229075,10273.809594138087
3912.011,0.15937034105692222,10222.636467679315
3912.9111,0.16195711472757987,7444.2236481202835
3913.8113,0.16387974909966235,7552.885302750039
3914.7136,0.16518245736222542,8452.148620595215
3915.6143,0.16609076368467146,9308.471043904246
3916.517,0.16691362004941054,10376.592793209476
3917.4182,0.167863941544252,8528.520199045603
3918.3215,0.16896294601502773,8883.85736532412
3919.223,0.17002746451241335,9361.880042243185
3920.1245,0.17080598219789483,12359.150458503394
3921.0286,0.1711232471009874,7573.008967960155
3921.9307,0.17097429518056853,9347.004232482748
3922.835,0.1705196237154367,8136.997720585472
3923.7373,0.17000351954547896,10046.993271122657
3924.642,0.16963724687206946,9843.66892022164
3925.5452,0.16950941177132262,7791.56891142909
