wavl,flux,ivar
3566.9744,2.796886059580119,127.90187810971224
3567.795,2.7924508702333983,90.35603582502391
3568.6177,2.7832772951760774,102.17276283139027
3569.4385,2.7708523291363814,149.28171943104508
3570.2617,2.7574896983085098,139.96881912866925
3571.083,2.746298766641368,138.41999635482156
3571.9065,2.7401510144967305,92.96019491507455
3572.7283,2.7406879353821543,118.82514053640494
3573.55,2.7473993256132503,97.99829607130856
3574.374,2.7580771835301925,112.16506966749881
3575.1963,2.7697676266211975,123.61964794339045
3576.0208,2.7798182809296743,99.57319286755205
3576.8435,2.7861444771845227,118.37725409516547
3577.6682,2.7879284367150343,91.18883562270616
3578.4915,2.78591990522526,87.55710166625116
3579.3145,2.7818992405772276,142.81624447583908
3580.14,2.777133067278493,110.40764110511715
3580.9636,2.7715192347424584,135.07491913458102
3581.7893,2.7642049427892683,113.89736266089297
3582.6133,2.7551438484844533,103.59650832079113
3583.4395,2.7455215841235794,99.29234871259199
3584.264,2.737300274464092,111.57894943124126
3585.0884,2.732266676100936,99.30950508279365
3585.915,2.7317181780901594,121.5628691977063
3586.74,2.736098680847848,143.67459562663842
3587.5671,2.7445606737062676,119.2610445734746
3588.3923,2.754812961100107,129.01710249296747
3589.22,2.763930624588852,127.12668271054096
3590.0457,2.7692197656071267,119.87708334170993
3590.8716,2.76925549777203,105.72908123223185
3591.6995,2.764175547197012,72.71106169974577
3592.526,2.755602786018888,121.60976268576869
3593.3542,2.7456533358007746,108.5401494356783
3594.181,2.735704725409204,107.93571339393115
3595.0098,2.725448949363084,109.43776738708335
3595.8367,2.713672563923519,138.04846063309117
3596.6638,2.699579859883749,114.78684771089758
3597.4934,2.6840352460424883,91.35536963728549
3598.3208,2.6698902464996124,174.4870350796296
3599.1506,2.660947687386425,111.28388760175903
3599.9788,2.6608233123198075,174.37002427069012
3600.8088,2.671092193856997,183.43809713603846
3601.6372,2.690145757375194,213.75356867797535
3602.4678,2.713635068882953,129.97972445860765
3603.2964,2.735831277144562,96.79443085285996
3604.1252,2.7521131544702233,120.0914833571668
3604.9565,2.760038905075031,90.8382162668508
3605.786,2.7593136644619083,102.50680036724269
3606.6172,2.750879234441559,148.39884014049167
3607.447,2.7359433920976315,101.08142438839232
3608.2788,2.715808552777823,88.1715852848915
3609.109,2.692766743488936,114.54607373887589
3609.9392,2.6701892369712774,150.6429418881105
3610.7717,2.652085858977892,133.67906596023062
3611.6023,2.6419093592972396,131.85669028399735
3612.435,2.6409248541477552,116.11555692277514
3613.266,2.6475851785060183,123.0549698383003
3614.0994,2.6578118129574277,122.67509486332528
3614.9307,2.666762527382144,88.91446085064521
3615.7625,2.671684386666095,124.0895267880301
3616.5962,2.6734103141415266,134.20168768909198
3617.4282,2.675367059661315,147.6458949957441
3618.2625,2.680634970007181,160.21868014027334
3619.0947,2.689514805415747,103.02189467954243
3619.9292,2.699739291334901,126.290190500728
3620.762,2.708247936450832,133.58462679045314
3621.595,2.7130421121269572,106.77450434231017
3622.4302,2.713494697248984,143.35521126438573
3623.2634,2.7101060409994453,156.6766827213207
3624.0989,2.7041662973222995,114.39604882464911
3624.9326,2.6971972624944858,93.44665491122575
3625.7686,2.689931608525304,84.79937357365095
3626.6028,2.682262505408376,105.6561725456526
3627.437,2.6744065279632325,72.57797328024158
3628.2734,2.6682609085602826,142.65621916274824
3629.1082,2.6666072495918085,197.80129979557125
3629.945,2.6702781023708297,109.67149928693892
3630.78,2.6765440090855264,94.78107518841112
3631.6174,2.680815825017591,142.17722399766023
3632.453,2.679913888573073,121.52900493416712
3633.2883,2.673917944116764,120.5399863540736
3634.1262,2.6652137880527276,135.3808027120551
3634.9622,2.6567962975862383,116.65925901096729
3635.8005,2.6509744668192714,136.17961674591604
3636.637,2.6490715459222254,89.99682220612435
3637.4756,2.651076549195227,137.1216504982179
3638.3123,2.6558897422346335,163.54014738245468
3639.1492,2.662251238147979,119.65202602033915
3639.9885,2.669576712580957,131.02535106630472
3640.826,2.6775770506166063,137.00281020238558
3641.6653,2.685299721495833,109.12409910706512
3642.5032,2.6906489214339397,151.36894659997097
3643.343,2.691609838057864,108.79889458240199
3644.1812,2.687641110972794,117.57757651725358
3645.0195,2.679943297540294,108.98533965633585
3645.86,2.6702536538205233,125.40779456611429
3646.699,2.659688723518541,118.13023197193367
3647.5398,2.6484762176504875,126.41917689017939
3648.379,2.6369863249641377,87.74140995179755
3649.2202,2.626110402531796,112.76094851998027
3650.0596,2.6171024747981853,96.28929994231859
3650.8994,2.610632163873603,107.93906742667777
3651.7412,2.6065577441442453,112.04400732390957
3652.5813,2.604102453764623,139.2864483151102
3653.4236,2.6021328553142204,119.87452806828897
3654.2642,2.599554092395537,126.68046277628429
3655.1067,2.5958400419135126,161.86836600923098
3655.9475,2.591803766536252,103.15907610751749
3656.7886,2.589616193203873,96.70550744299963
3657.6318,2.5916220523861546,121.52922075594202
3658.4734,2.598421619191788,138.70188408242745
3659.317,2.60807169820574,95.98321338068799
3660.1587,2.6170558400980775,120.19059429108027
3661.003,2.622397579845963,94.22167273128593
3661.845,2.622786121633006,152.00736038018178
3662.6875,2.6187345128428694,102.409981319022
3663.532,2.611872811299712,164.74881612521642
3664.3748,2.604205089510857,118.53022524288353
3665.2197,2.5971887330825805,124.5746829211315
3666.063,2.591450632106769,187.8701404446441
3666.9084,2.5868677317983364,113.76786361085121
3667.752,2.583126388169855,147.4304631019703
3668.5977,2.5798775074340523,148.61964173239474
3669.4417,2.576898675992118,165.9566487708482
3670.286,2.5742023981172717,103.18534383763884
3671.132,2.5722106431544374,111.35937406923222
3671.9768,2.571583288093381,159.31991239709424
3672.8235,2.572658803142529,142.67034783587974
3673.6685,2.574922608918376,165.9016905627007
3674.5156,2.576921471385864,153.8880528799474
3675.3608,2.5767070707328266,171.02983408464243
3676.2063,2.5726511400117875,134.0872642334652
3677.0542,2.5641285730288903,173.6479968263233
3677.9,2.5521775470631494,116.18618229874751
3678.748,2.5395199739724337,164.18552394818073
3679.5945,2.5301353807366374,152.6030787418105
3680.4429,2.527265541226056,173.39199750676798
3681.2896,2.5315025660523562,127.1909360740382
3682.1365,2.5401184064137556,153.62019147982576
3682.9856,2.5486832521824874,137.22540317476688
3683.8328,2.553498156858265,149.2472433733262
3684.6824,2.5534337829733147,127.8757245803038
3685.53,2.549985287991362,140.76279767089375
3686.38,2.546089225904071,108.95818085605009
3687.2278,2.544191171713373,169.65180290385786
3688.0762,2.544600235631453,117.75679926425921
3688.9265,2.5456567953072002,116.9621151164946
3689.7751,2.545426517843083,154.66463191510434
3690.626,2.543173481863397,124.78937653953028
3691.475,2.5392352456414047,116.6142736566761
3692.3264,2.5339965411779715,132.44209566940256
3693.1758,2.527580888786843,117.57158954807683
3694.0254,2.5201936050547387,144.67043016297265
3694.8772,2.512516910109411,141.89334984255143
3695.7273,2.5055571394142175,136.02927862146427
3696.5793,2.5000395375032953,109.19460996883319
3697.43,2.4962884002897536,116.96949198698954
3698.2825,2.494326127050578,121.79725240117929
3699.1333,2.494212843832442,113.53501263569217
3699.9841,2.4959023747443894,133.62950275702661
3700.8374,2.498731608931113,170.66840486619898
3701.6887,2.50097872559012,148.26476733033073
3702.5425,2.500297176013189,124.48823323366064
3703.3943,2.494909914065898,156.57340989432168
3704.2483,2.48491805325483,159.45576147887724
3705.1003,2.4728818168253457,138.63646812546253
3705.9526,2.4626902964181556,165.91750636876432
3706.8074,2.4575661892650853,129.53628664297713
3707.66,2.4581668416038474,147.83239040715594
3708.515,2.4621893247206432,133.30437569775532
3709.3682,2.466046857614764,158.0008775689561
3710.2234,2.4674163434102363,151.13452971867963
3711.0771,2.466560584691402,148.39205327347847
3711.9307,2.4654367781968416,126.48132188664002
3712.7866,2.46547097261079,146.5969446504751
3713.6409,2.4663870829986116,125.7985172256419
3714.4973,2.4671722635274036,151.21080610163443
3715.3518,2.467708923108785,144.07101914239246
3716.2085,2.4688482016942626,180.39476078778813
3717.0635,2.4707491103849604,175.13411291259055
3717.9185,2.471695492136916,162.48045292721847
3718.776,2.4689713249312413,152.55899868952764
3719.6313,2.4611334119147936,138.49572803425286
3720.489,2.449451362186455,147.37861708474924
3721.345,2.4375854985615097,166.998009585296
3722.2031,2.429389697717513,153.03189349643628
3723.0593,2.4268535177360957,140.58926165644746
3723.9158,2.428905182152312,151.53596255608952
3724.7747,2.432237902375488,174.796953970029
3725.6316,2.4331606922196185,182.920290878789
3726.4905,2.429518880826019,170.20855216761709
3727.348,2.4215427623677224,136.28795467231387
3728.2073,2.411377801338081,132.59653620819452
3729.065,2.401927666634731,142.88836775161758
3729.9229,2.3954542121160802,172.74943845460402
3730.783,2.393102505281926,171.88256580434282
3731.6414,2.394953057758892,153.17326342536995
3732.5017,2.4001731588766813,109.73020390495614
3733.3604,2.4070966071319573,136.61697602375523
3734.2214,2.413639421057227,166.34656640775503
3735.0803,2.4179667499162183,154.39560897165708
3735.9417,2.4194640901847637,153.10515058023103
3736.8013,2.4188508428229247,137.331915764611
3737.661,2.417435383222788,168.66312743314938
3738.5227,2.4158965363950413,177.42134603976865
3739.3828,2.413847287158355,131.57947985799098
3740.245,2.4106034259962543,138.52234093606972
3741.1055,2.4064254967276573,158.00738680488413
3741.9683,2.4025872142009677,151.17343905344214
3742.829,2.400155253747607,145.87666136234992
3743.69,2.398598348592544,117.53654988963187
3744.5532,2.3960962653885582,125.14257547541541
3745.4148,2.391303800525906,125.99570013222342
3746.2786,2.3847039819474114,158.798003442887
3747.1404,2.3783349229122885,164.37286356311296
3748.0044,2.3741285197534983,143.62891669872118
3748.8667,2.3728506176196116,129.5283449664332
3749.729,2.373963255227009,135.83436106585555
3750.5938,2.3762006661501673,124.80730454405013
3751.4565,2.378047055841465,164.62413442280456
3752.3215,2.3782410295181386,154.13653747551393
3753.1848,2.3762441545194672,179.86790440665425
3754.0503,2.3725324999554083,155.12790092953313
3754.9138,2.368417411166761,127.33126742809824
3755.7776,2.3653222668111678,149.09758945540557
3756.6438,2.3641516616850864,156.9728162093766
3757.508,2.3650488819554485,136.35366425396097
3758.3745,2.36749922071521,175.51844587593212
3759.239,2.3704486951241774,146.55039522948286
3760.106,2.3724755941042535,169.2109010000497
3760.971,2.372174076664784,130.8381512407792
3761.8362,2.368820083454898,156.0774941601704
3762.7036,2.3625967304237414,149.86321532186707
3763.5693,2.3543811072891656,150.2903533240028
3764.437,2.345314849021609,162.33869750672403
3765.3032,2.3369690729758315,143.59764643784592
3766.1714,2.331104886674376,181.5778240139391
3767.0378,2.328792623481015,182.3025732782129
3767.9043,2.328939461359481,175.72292261555032
3768.7732,2.328224554726656,140.8419520833939
3769.6401,2.323061091023875,144.48528991044665
3770.5095,2.3122905646945946,171.32414268482495
3771.377,2.298468202074725,116.9925510138565
3772.2466,2.286284633143522,170.0755546937632
3773.1145,2.2799655260407947,257.60654558183757
3773.9824,2.2808725523448126,177.5271717162854
3774.8528,2.2873735825970853,129.7706965236838
3775.721,2.2963054439710358,141.66586305391138
3776.5918,2.3052661761833786,151.37908218113375
3777.4604,2.313544933830349,131.62419189660935
3778.3315,2.3216035963689414,186.38695334983376
3779.201,2.329320998300019,147.44869993695104
3780.0703,2.3354434612825496,159.07688407252854
3780.942,2.3383802747491456,156.93923535020878
3781.8118,2.3375190706391904,147.3260474205255
3782.6838,2.3336538797832818,174.13483982989493
3783.554,2.328371705508043,133.29893633570356
3784.4265,2.323282942008435,170.62456832642604
3785.297,2.319800161917076,143.01061679372486
3786.168,2.318769965271536,161.2576368631023
3787.041,2.3199984360089583,157.96368384040036
3787.912,2.3218951812126853,171.53135165307216
3788.7856,2.322012574301013,157.61145058468423
3789.6572,2.3182273483475493,155.103174144655
3790.531,2.3096543467065436,141.93022571191972
3791.403,2.296682391094506,159.67986594045195
3792.2754,2.280129849249574,155.52294054782269
3793.15,2.2606802344941155,157.4082368166948
3794.0225,2.239087178344488,184.6592628046173
3794.8972,2.2162557197826285,148.48231815943387
3795.7703,2.193934022342879,177.61664925117074
3796.6455,2.1742435781781815,171.15619707791302
3797.519,2.1596341383671622,185.91356045984708
3798.3926,2.151929354867283,204.1200339526185
3799.2686,2.151903268819823,186.48953284496605
3800.1426,2.158971850991452,221.9233417002339
3801.0188,2.171611898954065,142.11272637168963
3801.8933,2.188087128507558,155.6918071304473
3802.77,2.2072550354987692,184.93021786295847
3803.6448,2.228206236896006,185.70767604791868
3804.522,2.2501908943312614,158.07015816032242
3805.3972,2.2720082639458603,163.9353121870116
3806.2727,2.2925113540759305,166.33195874990778
3807.1504,2.3106149622460497,163.55803849376403
3808.0261,2.3253983471220394,131.70261988672732
3808.9043,2.3366920683122356,149.91293556317999
3809.7805,2.3449547054942417,163.72044377336832
3810.659,2.351180619970311,139.7858909488572
3811.5356,2.3560652304206555,197.53554994801772
3812.4126,2.3596852117443614,144.17537325321
3813.2917,2.3615220211778727,214.02001639175424
3814.169,2.360802163929448,158.01613089030724
3815.0483,2.3568603364730785,152.51484159465573
3815.926,2.3495927257908464,136.6128195173696
3816.806,2.3398247171177253,205.20083290902477
3817.684,2.3293396165899334,161.24625309642823
3818.5623,2.3198626870360783,151.41471256952465
3819.4429,2.312107632874537,132.12800226396666
3820.3215,2.3056520910644323,170.3285063184215
3821.2024,2.299558327975448,157.59558601172452
3822.0815,2.2933242792140907,144.71492592205243
3822.963,2.286788701040738,166.22145247028487
3823.8423,2.2795634874212984,174.0443800233934
3824.722,2.2705003968502657,158.88638839169045
3825.604,2.2582434776845908,166.91954058287797
3826.4841,2.2423124251878623,181.23828548164508
3827.3665,2.2231179879356584,199.02947224707466
3828.2468,2.2015245369482916,167.22942700022512
3829.1296,2.1778077264749114,150.42350099093943
3830.0105,2.1522069586589097,229.10680377437322
3830.8916,2.1249257097353094,211.53563245872476
3831.7751,2.0961576021168127,252.10445580410487
3832.6565,2.065931457266984,185.03454688116855
3833.5403,2.033838444356126,219.61471346041492
3834.4224,2.000788922387595,216.51595529573657
3835.3064,1.9695424238352117,245.36583256877267
3836.1887,1.945167977900949,246.88129343661802
3837.0713,1.9329009304115472,266.9864049830306
3837.956,1.9360413738738214,276.9559511334081
3838.839,1.9543845356830005,271.28643878933786
3839.7244,1.9849324469071354,246.12995139814862
3840.6077,2.023473893979038,226.75822674848237
3841.4932,2.066480056798498,296.1977899621911
3842.377,2.1103755009951017,200.89683104690894
3843.261,2.151618648180636,174.45383532805013
3844.1472,2.186626714422375,145.23288599403904
3845.0315,2.212690694234808,142.50212780020973
3845.9182,2.2295862755966898,168.29691647128988
3846.803,2.2393495439988262,189.2370760906978
3847.69,2.245951455124282,173.7604008133183
3848.5752,2.253574941455275,163.80387882252333
3849.4604,2.2649983374353644,197.2043857897271
3850.3481,2.280611043178174,138.41363014201804
3851.234,2.298684835882426,165.20500594492245
3852.122,2.3170002252095157,145.08273811491597
3853.0083,2.333578079267709,189.78807962760078
3853.8967,2.347275318913837,129.3230575042958
3854.7832,2.3574288247404174,152.55763604170428
3855.6702,2.364203040805917,135.72347133567388
3856.559,2.3684437058445686,146.09021160086718
3857.4463,2.3712426146708943,146.35678030414687
3858.336,2.373494302449391,165.98531791785354
3859.2234,2.3758801056987715,147.22354539888823
3860.1135,2.379266829901639,170.0373639266345
3861.0015,2.384459298707985,143.71220644386165
3861.8896,2.391365612119076,155.6354948809744
3862.7803,2.398341262796115,145.65292511280632
3863.6687,2.402730136863691,122.48025047338919
3864.5598,2.402509815027502,172.8777931495034
3865.4487,2.397272700477728,168.96263759266108
3866.34,2.3879212210065988,137.4799818207655
3867.2297,2.3757203956348785,157.7849510234194
3868.1213,2.3614849900223107,143.0483520659446
3869.0112,2.3457540185870163,172.7176255107119
3869.9014,2.328669417012413,197.96051940381847
3870.7937,2.309966220705561,152.1007938583136
3871.684,2.289249174375013,146.65870796255197
3872.577,2.266235221288372,156.66376357969128
3873.4678,2.2416630823570913,185.62507011109136
3874.361,2.21667443173152,142.78492416806202
3875.2524,2.1924609705738307,195.09661960659818
3876.1438,2.169016973229083,199.74154243812868
3877.0376,2.145135437914368,220.531609589523
3877.9297,2.119238188015629,164.31303219509297
3878.8237,2.0899767924918153,183.01096494116632
3879.716,2.05723248566928,228.75694178152236
3880.6108,2.021346502735865,232.48457059527095
3881.5037,1.9830871068098068,188.63125405068695
3882.3965,1.9427703278074198,196.9876480137906
3883.2917,1.9005846045597632,268.9658011802605
3884.185,1.857042056978041,232.2482480691301
3885.0808,1.8121418009284882,258.5414490522629
3885.9746,1.7663311586555288,290.5935978259784
3886.8706,1.7202243514870972,287.6007739777864
3887.765,1.6762008753755426,264.8982519638629
3888.6592,1.6380161826917772,293.1222305692975
3889.556,1.6105990282063678,416.85526569641485
3890.4507,1.5988628737153063,367.8004620731006
3891.348,1.605539627932232,414.69607794058294
3892.243,1.6300980967404943,318.0314206495441
3893.1406,1.6689705236685821,329.47701958189214
3894.0361,1.7165125289888097,303.0601315053076
3894.932,1.7675430395843392,286.1418313291227
3895.83,1.8181926367750878,218.48396921137285
3896.7263,1.865542011171836,241.9936928125279
3897.625,1.9081150572164904,242.1271601604666
3898.5215,1.9449934585186501,173.1250639298269
3899.4207,1.977048497163851,192.4737256525355
3900.3176,2.006139029943916,235.39816397013828
3901.2148,2.03504927376562,192.1939340250673
3902.1145,2.066178233818751,178.60703422472326
3903.0122,2.1004596296167146,169.7427209705747
3903.912,2.1375008629208647,213.89975533217034
3904.8103,2.175230932046613,154.67552941532412
3905.7107,2.211471847828765,137.98563384870704
3906.6094,2.2443711690949226,154.05951400728887
3907.508,2.273379325764151,167.22119994251594
3908.409,2.298613668121206,131.65829723532298
3909.308,2.3201705948294418,191.14153682043326
3910.2097,2.3384962478139744,157.10384453497224
3911.1091,2.354273011354352,174.51825383291072
3912.011,2.3686522858474146,156.00760430357494
3912.9111,2.3823315659758855,161.362059789818
3913.8113,2.3955371783153714,142.49888454757618
3914.7136,2.4083660154646815,155.24743280955127
3915.6143,2.421177546575486,174.2198214256772
3916.517,2.4346162749245877,153.62442327915392
3917.4182,2.448752031750039,122.71490595644823
3918.3215,2.4629372423314284,144.80349809893067
3919.223,2.4757364037561196,162.04278911812403
3920.1245,2.485608946437718,123.37080615649063
3921.0286,2.491267305016313,128.55438278779965
3921.9307,2.4921798224023424,149.45907423470578
3922.835,2.489111003823838,137.9672211199674
3923.7373,2.484145180367198,126.40008172510335
3924.642,2.4799632884786167,166.8805344749447
3925.5452,2.4787514805629702,159.3280265064664
3926.448,2.481269201619192,129.2992795366269
3927.3535,2.4869336579567953,153.51718179890767
3928.257,2.494448658299882,142.28360750554137
3929.1628,2.5026615302347293,138.47892414963397
3930.0667,2.510772090723296,123.16371229969802
3930.9731,2.5183437994166176,142.43577925337502
3931.8774,2.5247440513061616,152.8460852601821
3932.782,2.528957784693148,139.75423977870616
3933.6887,2.529610122792179,129.3460332270674
