wavl,flux,ivar
3566.9744,1.5251212645168755,255.25577000999928
3567.795,1.5234001613747576,243.29513325037613
3568.6177,1.522128152537807,231.49961096432844
3569.4385,1.5216708780834751,237.87044930849618
3570.2617,1.5214250017730273,238.01888271383393
3571.083,1.5201977320594713,222.71704057988867
3571.9065,1.5169410421106029,239.07773177725753
3572.7283,1.5115784437811213,213.66707448655333
3573.55,1.5052578965974486,276.99500886560605
3574.374,1.4998254097252552,273.41078167906585
3575.1963,1.4968133796679177,253.30807287980434
3576.0208,1.4965527259854408,239.65563324678314
3576.8435,1.4982741114255955,244.90122249995412
3577.6682,1.50084515711919,243.4282299182374
3578.4915,1.5034622801758157,266.73886902374323
3579.3145,1.5057933105775285,253.92063919450047
3580.14,1.5076494665357254,243.4248342616986
3580.9636,1.5087626443319702,246.22561464444254
3581.7893,1.5089115647490585,219.81704990617428
3582.6133,1.5080466819380167,238.31149158458675
3583.4395,1.506281790137412,280.6796318488133
3584.264,1.503850138155865,278.6363572854892
3585.0884,1.5011059406707177,256.74267805128386
3585.915,1.4985432818993634,299.30617436044
3586.74,1.4966604738427818,215.15049388732308
3587.5671,1.495643052878937,242.30217986102735
3588.3923,1.4952045605859874,249.50136424895732
3589.22,1.4946030077578918,275.50248081804926
3590.0457,1.4929750959707953,231.59045197930274
3590.8716,1.489854464823316,284.74654820462933
3591.6995,1.485616960417213,245.33564695357987
3592.526,1.4814799214096193,266.3528424254168
3593.3542,1.4787812352205756,266.5800823226139
3594.181,1.4781442149621957,239.8717269246164
3595.0098,1.4789516704513854,242.41986837712537
3595.8367,1.4796095846529993,283.908565992843
3596.6638,1.4783567336568213,259.7592658225801
3597.4934,1.474131613729571,286.6381546986556
3598.3208,1.4671840637203797,245.9168946295895
3599.1506,1.458916797381823,222.69266568042764
3599.9788,1.4513565858542028,257.8747317770813
3600.8088,1.4461222337054065,291.09656084603637
3601.6372,1.4439313761991512,328.07462975117494
3602.4678,1.4444114635383178,234.06556851306706
3603.2964,1.4464468888121766,256.6609941311832
3604.1252,1.448697719271981,261.9536828423729
3604.9565,1.4501344250495656,287.24086037976474
3605.786,1.4503480430673241,254.92583577582243
3606.6172,1.4495571183098055,267.31591979792097
3607.447,1.4483365891540343,276.2957851300343
3608.2788,1.4473125894871504,271.2866784377126
3609.109,1.4469862689348862,266.65481422806516
3609.9392,1.4476536750765217,245.50697016175388
3610.7717,1.4493843819976393,241.913721861772
3611.6023,1.4518953345649572,248.8983201131526
3612.435,1.4545107728394149,249.46004819949212
3613.266,1.456304902401565,265.6378097421568
3614.0994,1.4565946414531847,252.64251876097208
3614.9307,1.4552836862172143,275.43517434249884
3615.7625,1.452830105688024,265.6304049737957
3616.5962,1.449881102231234,244.19031650511104
3617.4282,1.4470069452672263,249.83913403292166
3618.2625,1.444577590572453,279.3259079788676
3619.0947,1.4427757270210009,258.1614906332542
3619.9292,1.4414459519181302,281.9351166124701
3620.762,1.4401470849091353,257.76496258998066
3621.595,1.4384394478221072,277.0866046697763
3622.4302,1.4362997431331188,271.1111494261174
3623.2634,1.4342263693081039,271.62344749494326
3624.0989,1.4328108020727712,294.8398952121575
3624.9326,1.4321967995572866,320.5310081858035
3625.7686,1.4317617321409168,268.2867593356083
3626.6028,1.4303701385118932,247.30410691358955
3627.437,1.426995186528087,277.68089456306654
3628.2734,1.4213210159346883,318.35386364517
3629.1082,1.4140154990286475,289.64412805295717
3629.945,1.406328491431942,332.23701807518785
3630.78,1.399645275189993,244.34318979845796
3631.6174,1.394875364498846,256.4093236110286
3632.453,1.392386192384035,265.01118768614583
3633.2883,1.3919288945486177,295.97373190246276
3634.1262,1.3928148593924077,265.827685690393
3634.9622,1.3940646977644273,315.17346924917246
3635.8005,1.3946920149680329,333.039633417895
3636.637,1.3940110327016972,257.3804835228564
3637.4756,1.3918423000355882,273.6164812118209
3638.3123,1.388427346284404,304.6223423651648
3639.1492,1.3840792669311863,333.0329792387381
3639.9885,1.379003680141675,232.00114882607488
3640.826,1.3735025593127115,301.3948894121483
3641.6653,1.368106030123131,320.3410767008698
3642.5032,1.363556293015915,325.94307927432135
3643.343,1.3602839723805606,307.90162520478356
3644.1812,1.3581408771533174,371.65982520539524
3645.0195,1.35645569833117,324.0743918636844
3645.86,1.3545380486007852,306.1411435141814
3646.699,1.3521512113697924,308.3820195676441
3647.5398,1.3495817191748398,300.27370025872256
3648.379,1.3473757703244413,279.6238275283585
3649.2202,1.3458628007095468,321.23458665624304
3650.0596,1.3449572772935314,293.08182222520855
3650.8994,1.3442250291774234,276.4621058472554
3651.7412,1.3431873970342039,275.17898876214434
3652.5813,1.3415886492712623,302.8752989433027
3653.4236,1.3395075678208752,295.56516926696656
3654.2642,1.3373803036079392,304.36030338088
3655.1067,1.3358001188902042,405.79010241008046
3655.9475,1.335210580580546,362.43972521998285
3656.7886,1.3355361150883158,298.710375261522
3657.6318,1.3361446139170898,313.08852946839033
3658.4734,1.3361903764873824,286.1123199765021
3659.317,1.3351485549232915,284.0437459253738
3660.1587,1.3331040872319684,325.40375915723536
3661.003,1.3305970818141084,315.1161705121737
3661.845,1.328308383758424,309.47952320803915
3662.6875,1.3267232792272199,309.90342445135116
3663.532,1.3259695327355598,352.6129810186685
3664.3748,1.325709588035265,300.87231666694987
3665.2197,1.3252978036277505,245.78139520082303
3666.063,1.3242903346796033,324.4993740093477
3666.9084,1.322861956828609,365.7607046946365
3667.752,1.321682659635967,316.1785543561885
3668.5977,1.3212619606437954,294.97031873190673
3669.4417,1.321456162163081,294.2827451613748
3670.286,1.321547534133553,336.3719896730308
3671.132,1.3208249734344295,321.52189395866094
3671.9768,1.3191553396245457,332.1364362694217
3672.8235,1.3170931352008441,343.55878167252536
3673.6685,1.3155101450406914,348.213968203378
3674.5156,1.3149343352591727,341.8334182407725
3675.3608,1.3151337612167098,355.27809971881095
3676.2063,1.3151948058126168,335.4576473272453
3677.0542,1.3141363870351648,312.25937596931556
3677.9,1.3116372887420995,286.6945261765335
3678.748,1.30828433569452,362.2846778901477
3679.5945,1.3052242139710728,298.3243123562091
3680.4429,1.303338098675201,332.0793959047134
3681.2896,1.3027220961977077,369.85674085828464
3682.1365,1.3027315819292862,318.2291647670566
3682.9856,1.3026444747199821,326.7399848089492
3683.8328,1.3023128321626287,301.5588860689612
3684.6824,1.302250596261422,337.19330471308933
3685.53,1.303088150891453,335.55715706816756
3686.38,1.3048953040846385,312.63475776854216
3687.2278,1.306893231809447,321.0195587020167
3688.0762,1.3076695397275806,358.656512741907
3688.9265,1.3054067278729136,316.22727046516883
3689.7751,1.2980489811107676,353.8308161972067
3690.626,1.2836927174923651,343.6875358179296
3691.475,1.262108377578825,321.14550420453355
3692.3264,1.2362558882289374,345.3144940936158
3693.1758,1.212985952217097,383.8943152885369
3694.0254,1.200034651470663,405.31535749952155
3694.8772,1.2019728994526848,404.180666992301
3695.7273,1.2173636412030462,319.0558452386801
3696.5793,1.2400284984722612,331.14786345151197
3697.43,1.2627331133823387,335.8901232959478
3698.2825,1.2807610626579204,363.51095967622786
3699.1333,1.2923797524520804,324.84894477211867
3699.9841,1.298110742127933,351.80814400643726
3700.8374,1.299337287460511,354.6944056858051
3701.6887,1.2976458869453684,340.1235927997495
3702.5425,1.2944908958978623,353.81700671673127
3703.3943,1.2909616498494005,351.2600089474106
3704.2483,1.2875844210386804,333.5672591339866
3705.1003,1.2844618239770433,350.89520523715566
3705.9526,1.2814967309453087,305.80675552988237
3706.8074,1.2786949376336811,328.7494130750508
3707.66,1.276234081231986,351.2571809643332
3708.515,1.2742414510488678,347.5569160023542
3709.3682,1.2726939049960169,403.00647978195383
3710.2234,1.2714411525239897,364.9810917174031
3711.0771,1.270426777078549,380.80581782753194
3711.9307,1.2697406106373084,370.8356139000225
3712.7866,1.2694844328973616,371.7306444899801
3713.6409,1.2695855022569915,387.47531137770085
3714.4973,1.26978782867867,308.81196462214234
3715.3518,1.269834818428295,350.37201107115527
3716.2085,1.2696010039287386,350.85296995329173
3717.0635,1.268978691795462,374.534072096329
3717.9185,1.2676575605728757,357.70077041673864
3718.776,1.2651953251598294,441.9865477024181
3719.6313,1.261590564444547,363.2065213541675
3720.489,1.2577375016237307,313.59781774900614
3721.345,1.2551626628046744,345.45871633916516
3722.2031,1.2548600737266316,370.55547769619733
3723.0593,1.2565203875377988,347.02647874613274
3723.9158,1.2588738427180204,365.2924076482288
3724.7747,1.2607700984942343,367.8754013752039
3725.6316,1.2618423461066384,325.3227409234519
3726.4905,1.2623607079270036,349.5596691785141
3727.348,1.2625704895120393,345.96975980979744
3728.2073,1.2622597811431306,399.89329779129173
3729.065,1.2608685478624635,347.58363287183005
3729.9229,1.2580434036843253,280.0899268694577
3730.783,1.2541326794932552,295.2378910776796
3731.6414,1.250162360105585,396.1886568649891
3732.5017,1.2471330034958763,341.14197967639643
3733.3604,1.245427250641055,396.1985476623647
3734.2214,1.2446747028248124,381.9793752396906
3735.0803,1.244245179947591,368.50769557528463
3735.9417,1.2437387638306172,357.2484063371639
3736.8013,1.2431521066322304,352.3144466277786
3737.661,1.2426784518238314,427.4317315004786
3738.5227,1.2424534881384026,383.76547708556365
3739.3828,1.2424272853589333,376.42858027031025
3740.245,1.2423548984211419,355.34589460766546
3741.1055,1.2418535347384085,338.6723721480664
3741.9683,1.2405211842289674,353.9422507250946
3742.829,1.2381666369256235,314.763562162708
3743.69,1.235013342291954,408.31503012348867
3744.5532,1.2317644396581173,327.9458187170825
3745.4148,1.2294181717238326,410.87980175932495
3746.2786,1.2287456226505735,434.33324258565557
3747.1404,1.229871559979561,367.638937905291
3748.0044,1.232196185602378,377.52631786768893
3748.8667,1.2347866631871014,357.69825812941303
3749.729,1.2369273721183756,355.87220725649024
3750.5938,1.238312962008825,386.9572961253775
3751.4565,1.2389216352679624,415.37800511637556
3752.3215,1.2389079595928345,363.3909907534485
3753.1848,1.2386039492896999,373.58035088768304
3754.0503,1.2385056741714227,347.68441281975606
3754.9138,1.239061038011943,371.93625860761506
3755.7776,1.2403886868237481,360.39682362210954
3756.6438,1.2421690582395257,374.2852666974453
3757.508,1.2437160385107005,399.12489133512975
3758.3745,1.244216186555677,345.105128718357
3759.239,1.2430026685481506,336.6449080820604
3760.106,1.2398984144999792,343.7717001532591
3760.971,1.2354271692702126,393.0613721255337
3761.8362,1.2305632052371918,346.9822267976763
3762.7036,1.226240529339207,385.52639041883043
3763.5693,1.2229584719746633,354.72838014308394
3764.437,1.2206675515213141,365.6270503420953
3765.3032,1.2190860582310845,372.71064697798573
3766.1714,1.2179313315296032,362.3987027117427
3767.0378,1.217010797214291,375.3572827775788
3767.9043,1.2161046935475026,424.94280254266994
3768.7732,1.214956423799545,407.54699267843046
3769.6401,1.2134907743636512,364.5460555254478
3770.5095,1.2120261947605864,435.1735531137953
3771.377,1.2111973902612247,371.10709326974944
3772.2466,1.2114292581574138,377.41952903794584
3773.1145,1.2124681514336555,405.68010454535647
3773.9824,1.2134307065914662,403.6961881724988
3774.8528,1.2134177806697561,399.1708374767089
3775.721,1.212145241589959,405.7037600032001
3776.5918,1.2100011607248742,391.8172373964861
3777.4604,1.2076023762890902,383.09507281312466
3778.3315,1.2053519856907744,351.83998001496263
3779.201,1.203571300947777,424.69949078257287
3780.0703,1.2027838317021255,422.088678913257
3780.942,1.203724299482316,380.0340479962996
3781.8118,1.2067803517136393,358.56177852290125
3782.6838,1.211413760807625,360.20450900401573
3783.554,1.2161176305507608,419.17885720215077
3784.4265,1.2192405872980885,383.8268925012502
3785.297,1.2198004127544029,306.59831923175966
3786.168,1.2178478107017088,418.9179631645741
3787.041,1.214061601559518,389.6341787604076
3787.912,1.2093219077721826,395.562745604192
3788.7856,1.2044445729193993,420.4559692694303
3789.6572,1.2002066596520533,403.4440168138851
3790.531,1.1970449340046547,371.70251552959587
3791.403,1.1948685456898966,409.4163103435661
3792.2754,1.1930293180332767,430.38112053645585
3793.15,1.1907454005291538,441.50066819366253
3794.0225,1.1875966586151696,393.729156575723
3794.8972,1.1837037577438656,372.3103717619111
3795.7703,1.1796358269157026,441.63956972226356
3796.6455,1.1759738751606894,432.63404954601396
3797.519,1.1730687655834915,403.30519189095696
3798.3926,1.1709731503805565,375.24600622471445
3799.2686,1.1697288908713268,419.86569289054614
3800.1426,1.1695640555132314,452.83746129698704
3801.0188,1.1707214521889908,445.86773299638054
3801.8933,1.1730874348382458,423.4344251611308
3802.77,1.1760473576537223,440.83644302393725
3803.6448,1.1787290289727417,409.9871870441684
3804.522,1.1805549013452963,401.8288478545842
3805.3972,1.1815105858223862,416.1478696498899
3806.2727,1.1820976739263154,412.1631602466192
3807.1504,1.182936603577441,381.46551011842547
3808.0261,1.18434410499788,473.9365173568596
3808.9043,1.1861376199292122,368.9908188551076
3809.7805,1.1877516769720426,404.9174806671125
3810.659,1.188674095134193,410.53157015890446
3811.5356,1.1887640250773637,361.4107599911435
3812.4126,1.1882724813333727,394.4434325063353
3813.2917,1.187562783752431,426.69231604912125
3814.169,1.186878294098312,415.7073781159469
3815.0483,1.186266927947401,404.1695473310289
3815.926,1.1856228283443462,384.40218657472894
3816.806,1.184710775033002,420.4292034771741
3817.684,1.1832640987884069,366.5385175895154
3818.5623,1.1811245128034273,452.95175006228845
3819.4429,1.178371799685011,406.8443516570897
3820.3215,1.1753737063740182,409.6367647528765
3821.2024,1.1726343927578597,428.3812370338002
3822.0815,1.1706449505700778,424.35206487594826
3822.963,1.1696049823810504,412.793437226476
3823.8423,1.1693165263224474,393.5938911461675
3824.722,1.1692341183905905,417.1087900572327
3825.604,1.1687160699647452,416.3177984325451
3826.4841,1.1672650032656753,427.17858625028686
3827.3665,1.1646330989148386,412.36987764076355
3828.2468,1.1608823022793262,444.630684447734
3829.1296,1.156331532532634,412.52103035542086
3830.0105,1.1515475813529603,426.9081858762749
3830.8916,1.1470736282391962,405.14534059513403
3831.7751,1.1432578554451587,432.1146542333837
3832.6565,1.140205117486213,445.729163133853
3833.5403,1.1377593068464633,447.64629640282647
3834.4224,1.1356194008550102,514.3706403357806
3835.3064,1.133357111674894,462.68528717228713
3836.1887,1.1306831103988344,451.20681438024025
3837.0713,1.1277531185542655,435.80313015864436
3837.956,1.125300359607684,499.42980357033184
3838.839,1.124276045759058,467.56171067674796
3839.7244,1.1251532584326975,487.09664021157874
3840.6077,1.127560529275333,460.58225906765887
3841.4932,1.1305711352256975,464.01762877127237
3842.377,1.133349316680984,439.4250672042312
3843.261,1.1356834320641278,411.98937252755917
3844.1472,1.1379139120022475,420.21017595566366
3845.0315,1.1404918042061907,429.6676960503787
3845.9182,1.1436089642327552,402.46321274021443
3846.803,1.147006361499407,391.7370124501852
3847.69,1.1501637197787453,392.95213058914766
3848.5752,1.1525257131755353,349.38257242161126
3849.4604,1.1538352757128283,461.0942564529183
3850.3481,1.154227572381777,440.9604156754878
3851.234,1.154130674655324,418.95209869755865
3852.122,1.154046392497015,415.14289572085966
3853.0083,1.1543742094211764,442.789764583791
3853.8967,1.1553384368969462,448.1494477118001
3854.7832,1.1569218927476894,407.5720010714452
3855.6702,1.1588122194629589,406.6279474985405
3856.559,1.16041954417289,414.727034599023
3857.4463,1.1610826107449168,420.0960039669043
3858.336,1.1604255516743684,358.3533682818032
3859.2234,1.158589139543842,393.2210064651279
3860.1135,1.1561389521917216,434.64430692222334
3861.0015,1.1537399288842716,438.62594167740724
3861.8896,1.1517554937927403,428.13739763163613
3862.7803,1.1501765823991592,517.0854092416059
3863.6687,1.1487812133029436,433.41927005449946
3864.5598,1.1472826467796164,412.824025855899
3865.4487,1.1454272399835461,411.736132664873
3866.34,1.1429845842477846,414.9941985964972
3867.2297,1.1398906342824107,415.2957990744965
3868.1213,1.1363400820824294,424.90355613908116
3869.0112,1.1328410182152069,443.42071930654726
3869.9014,1.1299634257578923,447.588031718958
3870.7937,1.1280912106828942,462.3429208771298
3871.684,1.1272945216461263,389.1780620943824
3872.577,1.1273835355989166,486.55695969076
3873.4678,1.1280779931294354,526.0058216626178
3874.361,1.129063367247958,461.27225292132596
3875.2524,1.1299462190157439,489.34851874436964
3876.1438,1.1302810591172328,430.41119291471597
3877.0376,1.1296975830276845,440.199845357663
3877.9297,1.1280943443354585,425.9678962412452
3878.8237,1.1256739969093528,462.6689107380384
3879.716,1.122783525358797,483.6515960969731
3880.6108,1.119591467035927,489.3078165372112
3881.5037,1.1160153717481824,490.0197421535686
3882.3965,1.1118282242532862,436.93641019598493
3883.2917,1.1069642063013787,429.234735056941
3884.185,1.1017386408807284,424.682035865466
3885.0808,1.0966986979066986,503.6774750199207
3885.9746,1.09247170030922,506.63752369520284
3886.8706,1.0893939595428406,502.9018547278013
3887.765,1.0874388545248197,585.3418732794938
3888.6592,1.0862363703326332,492.8392917072114
3889.556,1.0853488730209202,481.72242381705166
3890.4507,1.0845433094628236,452.93768398320185
3891.348,1.0839085182016306,450.74456725703305
3892.243,1.083773779908295,480.0467730850381
3893.1406,1.0844189853077588,507.8897643216311
3894.0361,1.0858015834838415,461.9647720226529
3894.932,1.087534971890049,461.67482743036993
3895.83,1.0891503169317511,443.1483769010579
3896.7263,1.0904184419437501,498.07688720742567
3897.625,1.091493058505161,469.0446926746486
3898.5215,1.0927103059464127,493.88221409601465
3899.4207,1.0943542246176399,468.92451139168304
3900.3176,1.0965014080353594,581.0608738157601
3901.2148,1.09908127315534,511.58791927165754
3902.1145,1.1019537215256001,485.17473800537476
3903.0122,1.104965985789101,488.7075569535937
3903.912,1.1080520578380306,424.7168928436689
3904.8103,1.1111593810513116,478.20038922552794
3905.7107,1.1142355160427628,375.03142313135476
3906.6094,1.1171631531637696,478.9897170435343
3907.508,1.119904046515717,467.19729546158095
3908.409,1.1225835197765635,402.9701593902881
3909.308,1.1254188704279973,483.59534237902227
3910.2097,1.1285432445637704,421.4211309967184
3911.1091,1.1317888851244553,432.8504406158098
3912.011,1.13486809800576,379.6869364751635
3912.9111,1.137605031474908,462.1167129482397
3913.8113,1.1400761993602788,436.0654183010596
3914.7136,1.1423172086630133,405.48526268166466
3915.6143,1.14401382509286,393.528615937815
3916.517,1.1446531619469071,394.03569745458464
3917.4182,1.143985990629456,467.21059799537215
3918.3215,1.1423705240801425,420.4703151594716
3919.223,1.1405966425015979,450.54859777400185
3920.1245,1.1393513515529086,416.37606815079533
3921.0286,1.1388413820097076,423.44652876015874
3921.9307,1.1387541955134788,466.97599569541404
3922.835,1.1384965525480601,427.5146285517705
3923.7373,1.1375433743142547,458.78473795463583
3924.642,1.1356832854757422,468.16258847933057
3925.5452,1.133109504206574,484.6165195203628
3926.448,1.13028308723243,464.31021469479975
3927.3535,1.127705312325393,435.0729873013842
3928.257,1.1256983946467232,424.9598481212287
3929.1628,1.1242204743101445,459.4091242031352
3930.0667,1.1229534637668337,398.1703920344733
3930.9731,1.1214604332199056,515.525964819122
3931.8774,1.1194334390616,467.85466270538967
3932.782,1.1168539096036774,432.9383143780713
3933.6887,1.1141042756972734,451.25980518493895
