wavl,flux,ivar
3566.9744,1.1082629282098682,780.688887455831
3567.795,1.1073270299553968,750.741180960411
3568.6177,1.1057082904624869,834.2649010967418
3569.4385,1.1032662030225329,849.8625247537213
3570.2617,1.100038064834692,700.2028786772019
3571.083,1.0965429640261435,859.7421402238404
3571.9065,1.0938295642524123,843.3554485355263
3572.7283,1.0930245679718542,982.8797904714968
3573.55,1.0944544563157084,804.7385532407895
3574.374,1.097344139083351,787.1186667102179
3575.1963,1.100257545753856,796.1877172136157
3576.0208,1.1020125392131712,712.1411037864466
3576.8435,1.1022258549273614,820.5096661127299
3577.6682,1.1013101110423156,891.8757841146798
3578.4915,1.0999523688375148,800.3035253934682
3579.3145,1.0986022064381502,831.4781318709247
3580.14,1.0973818912158013,931.0866576685592
3580.9636,1.0963646032030194,908.2176215970732
3581.7893,1.0957673208671457,918.4340910918334
3582.6133,1.0958925408061417,709.3401773216239
3583.4395,1.0968958008937342,821.2857225030479
3584.264,1.0986200640955404,873.53766103567
3585.0884,1.100570807827306,1165.0991727078244
3585.915,1.1020235451556941,766.2539465347791
3586.74,1.1023184551075358,883.2742009198873
3587.5671,1.1012792400442997,817.0088861047685
3588.3923,1.099376124935377,900.0785606417705
3589.22,1.0974188140427406,829.594879433087
3590.0457,1.096023455792687,837.4741095450289
3590.8716,1.0951925581841562,851.9844784678336
3591.6995,1.0944226006711193,818.4050644114403
3592.526,1.0931381035953731,901.6185446903698
3593.3542,1.0910687521436286,775.8568466658827
3594.181,1.0883454708767566,762.0022360094903
3595.0098,1.0852735106726579,892.2456707673259
3595.8367,1.0821669906071638,876.960650503058
3596.6638,1.0792049199483227,872.0964331806185
3597.4934,1.07646138984739,730.7102703672924
3598.3208,1.073967169558245,967.9547155161814
3599.1506,1.0717292508097378,841.4911740819692
3599.9788,1.0698797824853974,906.7216966558059
3600.8088,1.068642763171724,756.4705976581594
3601.6372,1.0681995925620724,943.9567289457298
3602.4678,1.0684682882764935,768.6744096214933
3603.2964,1.069154586451707,984.6345967180646
3604.1252,1.0700429554070943,810.5426462671685
3604.9565,1.0712081001221059,1073.9143734476138
3605.786,1.0729025421865406,869.1888418258545
3606.6172,1.0752843664624996,845.4786747942483
3607.447,1.078142476849578,733.3857268393907
3608.2788,1.080899136281675,852.5970355906928
3609.109,1.0827775713073822,1065.2750868823398
3609.9392,1.0832096626279126,870.6237698497737
3610.7717,1.0821051724388833,1163.7431388011003
3611.6023,1.079915747281258,781.6744437556259
3612.435,1.0773783002225699,842.4061646720497
3613.266,1.0751960390236885,873.5029837536013
3614.0994,1.0737239916997783,1164.5055961956582
3614.9307,1.072949722418935,937.1669146042933
3615.7625,1.0726153611373206,908.2716867388277
3616.5962,1.0724187848670528,749.3939085858743
3617.4282,1.072064206691802,850.3363799875063
3618.2625,1.0712174165372643,1001.8179090277707
3619.0947,1.069586664358138,860.9096567515692
3619.9292,1.0671623140886908,881.4278561075303
3620.762,1.0644336597085413,767.3114943015152
3621.595,1.0621279681456994,859.6097551341686
3622.4302,1.060675604372595,844.2100245226533
3623.2634,1.059854498419454,877.7206719546393
3624.0989,1.0589781425911073,803.1472506882992
3624.9326,1.0574645274979753,1119.2424715145946
3625.7686,1.0551266442249305,899.8569195266484
3626.6028,1.0520846281729284,891.6720006841084
3627.437,1.0485088971383512,858.5436972666247
3628.2734,1.0445980995949753,1013.2682028532909
3629.1082,1.0406556059538339,882.9063961487545
3629.945,1.0368964245363763,957.6215238412659
3630.78,1.0333237257387669,883.5703957002169
3631.6174,1.0297021735397849,858.4046657375094
3632.453,1.0259533525033235,1296.4076663143449
3633.2883,1.022326370018223,1013.1145950193543
3634.1262,1.019267191332542,928.9029598256851
3634.9622,1.01698635691392,819.7645193296968
3635.8005,1.0150604011449884,982.9929457054695
3636.637,1.01259500330365,866.1803467357526
3637.4756,1.0087164279081389,1256.7972989846774
3638.3123,1.0032383836033618,899.585629642991
3639.1492,0.9968600085469901,952.4924749056954
3639.9885,0.9909132889972871,1013.8398633985454
3640.826,0.9867444354943482,1012.4981776570986
3641.6653,0.9849514391748377,1160.9459319787356
3642.5032,0.9852422290269599,1106.4254787014397
3643.343,0.9867492746371928,1660.3960712031403
3644.1812,0.9886118369241751,1055.725684993
3645.0195,0.9903162226209632,1013.1305689468342
3645.86,0.991591874852737,1069.9697401311305
3646.699,0.9921779247628064,855.8631983087305
3647.5398,0.9918329565476318,811.5408654397928
3648.379,0.9905256292989723,1145.267443971626
3649.2202,0.9885192510157641,885.03425249376
3650.0596,0.9862201281330218,1201.4693008314398
3650.8994,0.9838991577346714,909.5283841742288
3651.7412,0.9816312400459809,1090.068499750549
3652.5813,0.9793993889273883,1169.4059785391673
3653.4236,0.977190890346419,1204.798300593193
3654.2642,0.9751227889619438,1032.2228153149485
3655.1067,0.9733972341201018,981.8758777474743
3655.9475,0.9722219525532549,1017.6186431712509
3656.7886,0.9716468036203745,970.0013950356131
3657.6318,0.9715500311972779,1056.7908240919119
3658.4734,0.9716985353366939,984.4711386697749
3659.317,0.9718206155568269,920.6311351722869
3660.1587,0.9717137617560608,989.6620718816536
3661.003,0.9714232464145335,1136.356569920342
3661.845,0.9713234719210544,1269.083633264704
3662.6875,0.9718867662376137,1166.5771598703432
3663.532,0.9732772455991995,1130.254405896256
3664.3748,0.9751237186443033,1005.9481100967288
3665.2197,0.9767661969431871,957.8836164777548
3666.063,0.9776948712650178,978.0164451085468
3666.9084,0.9778394639798561,1262.351046776563
3667.752,0.977383118214571,878.0474577083118
3668.5977,0.9763995062546102,1190.8448369873106
3669.4417,0.9747277871758294,1085.3597142834128
3670.286,0.9721918659972475,978.5210734867277
3671.132,0.9689425390554559,1115.4494403445992
3671.9768,0.9656136317425951,1216.890600053861
3672.8235,0.9630633043111337,1072.0099970089695
3673.6685,0.961973949179982,1202.2940521045812
3674.5156,0.9624156551387706,1062.2917823168796
3675.3608,0.9637775075840638,904.7210590318284
3676.2063,0.965081875516657,1082.9275290782807
3677.0542,0.9655308806284506,1033.6963981442932
3677.9,0.9649441393191744,1144.7698103722287
3678.748,0.9637429867971061,1013.4419025644843
3679.5945,0.9624874103480519,1155.76114837777
3680.4429,0.9614185935013174,854.4803981432245
3681.2896,0.9605132732558004,911.0494596612475
3682.1365,0.9598256958343055,1023.6390063757859
3682.9856,0.9596429859766105,870.5299540774071
3683.8328,0.9601923186851915,1163.8931861494152
3684.6824,0.9612355097258626,1171.3067690673806
3685.53,0.9619863820224234,1162.2984369803262
3686.38,0.9615070648810371,1004.8814227893608
3687.2278,0.9592864939652744,1107.4271868330932
3688.0762,0.9556367959390951,1064.9593731860828
3688.9265,0.9516675839973258,968.1861129424854
3689.7751,0.9488699690057484,1216.652895490065
3690.626,0.9483920640131981,1087.4576580581859
3691.475,0.9505455616956648,973.6739453570838
3692.3264,0.9547623687426132,997.7437673745397
3693.1758,0.9600232261836014,1099.5683562947804
3694.0254,0.9654350313273786,1028.5915930206413
3694.8772,0.9703154764669972,1237.186732194339
3695.7273,0.973968482826423,1068.2940259301458
3696.5793,0.975714142469,913.1216040358577
3697.43,0.9750923930012216,998.3265873385616
3698.2825,0.9721413785209054,1049.825359166904
3699.1333,0.9673661015600763,1014.8349798898821
3699.9841,0.9614751273480271,1225.1582393948966
3700.8374,0.955240557516524,1178.4051183623121
3701.6887,0.949562092328465,1187.0622733246942
3702.5425,0.9452861604823718,1094.3973849103752
3703.3943,0.9430039732954041,1207.387562604704
3704.2483,0.9425984805938038,1297.2156753203087
3705.1003,0.9432626388618633,1037.678139953909
3705.9526,0.943948781848853,1074.4436533307885
3706.8074,0.9439753883444721,1258.673552605635
3707.66,0.9432446985901053,1078.8031824752509
3708.515,0.9419613545330733,1090.442979067254
3709.3682,0.9402542823591573,1178.379982815149
3710.2234,0.9380845562976504,1109.8606156714402
3711.0771,0.9355605768103119,1245.80930134655
3711.9307,0.9331885207856367,990.929606470243
3712.7866,0.9317745942273151,1074.4213344034183
3713.6409,0.9319419604832456,1227.4213811613613
3714.4973,0.933620218962463,1014.7050051870424
3715.3518,0.9359933317307693,1067.100821865792
3716.2085,0.9380056899953574,989.0122601729922
3717.0635,0.9390064154411717,1096.3339538095024
3717.9185,0.939146867305045,1115.7080704195457
3718.776,0.9391179336282999,1119.981115721366
3719.6313,0.9395121767006006,1323.5237524531658
3720.489,0.9403474943872034,1008.2866890347501
3721.345,0.941157655155365,1090.1337442319825
3722.2031,0.9415400402776184,1136.3839238859732
3723.0593,0.9415975452453612,1477.59682139456
3723.9158,0.9418961758559395,1083.4218751617389
3724.7747,0.9429485062548054,1046.7876260288645
3725.6316,0.9446661847974593,995.4735056530438
3726.4905,0.9462890918244474,995.1857526488917
3727.348,0.9467886227465228,1030.0163545375358
3728.2073,0.9454788716385224,1183.8657002392385
3729.065,0.9423938645086293,996.1421494233117
3729.9229,0.9382768759198759,1293.3475961731726
3730.783,0.9342259139863816,1313.8832908470345
3731.6414,0.9311511154592154,1041.0024922820405
3732.5017,0.929234856336847,1061.5354315867028
3733.3604,0.927987445804627,947.1044439394734
3734.2214,0.9267322260436532,1054.3519039103167
3735.0803,0.925232506818471,1172.6889356817142
3735.9417,0.9238173649348363,1075.8663673765238
3736.8013,0.9230290063207098,1249.9927913164559
3737.661,0.9230492459917287,1206.7151023938025
3738.5227,0.9234605093795876,1221.6403508282422
3739.3828,0.9234607620200205,1458.3772082880441
3740.245,0.9223783312510544,1071.2768511784088
3741.1055,0.9200893828097705,1095.0731210464096
3741.9683,0.9170357742403744,1331.8064580640098
3742.829,0.9139733045794514,1246.9564548634764
3743.69,0.9115381758946908,1313.5708274018846
3744.5532,0.9100396029054689,1044.7229829957707
3745.4148,0.9094790497924995,1466.6953515379578
3746.2786,0.9097182148036881,1117.2668046498663
3747.1404,0.910694831882991,1095.4146348440534
3748.0044,0.9124697708119028,1228.6131991601553
3748.8667,0.9150135572190756,1155.9861045948978
3749.729,0.9179373757093887,1223.3847216454196
3750.5938,0.920432802280036,1088.3063376809728
3751.4565,0.921654367979762,1111.034909950126
3752.3215,0.9213898841712492,1048.9050474860144
3753.1848,0.920302745191843,1279.1847567349184
3754.0503,0.9195001137429428,1183.701287026004
3754.9138,0.919744710211249,1186.79506528767
3755.7776,0.920953020829221,1142.0069876513355
3756.6438,0.9223538383181282,998.392690130112
3757.508,0.9230249109752187,1312.0748075540102
3758.3745,0.9224612608265722,1135.9727145694542
3759.239,0.9208137014143127,1113.9022532542065
3760.106,0.9187266633089617,1146.071037043792
3760.971,0.9169202465454048,1137.9732887549987
3761.8362,0.9157385308610883,1169.4019349029577
3762.7036,0.9150858055460321,1077.1566862251136
3763.5693,0.9146650062511097,1406.9290680640524
3764.437,0.9142639508018859,1279.5146482393354
3765.3032,0.9139246095802718,1152.549115745932
3766.1714,0.9139470174038973,1204.1014137175182
3767.0378,0.9147239987963555,1202.8306125573336
3767.9043,0.9163695136440816,1237.6938069488112
3768.7732,0.9183889882142007,1264.829105673028
3769.6401,0.9197627818878377,970.096201116158
3770.5095,0.9195984807039872,1017.9428879162165
3771.377,0.9177391519499508,1163.752148770095
3772.2466,0.9148127338338095,1544.6784774249545
3773.1145,0.9117522219024643,1380.368179001487
3773.9824,0.909228143011746,1071.4064918094637
3774.8528,0.9075503580198843,1204.2308643205452
3775.721,0.9068952446385204,1346.2485838042808
3776.5918,0.9074745032234481,1270.2952322800081
3777.4604,0.9094864852704393,1181.5896779352574
3778.3315,0.9128635260239887,1144.8762475615847
3779.201,0.9169790050400815,1158.1899644973146
3780.0703,0.9206879617335574,988.4702947707857
3780.942,0.92266097056376,1191.2382780423861
3781.8118,0.9219754541781415,1168.0090645768262
3782.6838,0.9186387214208254,1319.451172565539
3783.554,0.9136760619881418,1077.4638499797604
3784.4265,0.9086632441009133,1212.8761652661965
3785.297,0.9051238490789199,1334.4009896560217
3786.168,0.9037817844082885,1323.7168752618622
3787.041,0.9042826923486676,1473.1990842264836
3787.912,0.9054002301932523,1018.2859900280293
3788.7856,0.9057849821033662,1228.7638380666722
3789.6572,0.90472046360567,1403.982313098705
3790.531,0.902363226105529,1373.783791592689
3791.403,0.8994001368915139,1165.8835271731807
3792.2754,0.8964762352384297,1132.282697635068
3793.15,0.8939049775770357,1290.3869516680168
3794.0225,0.8917003271163834,1342.7251499012427
3794.8972,0.8897144459775059,1130.0676477287798
3795.7703,0.8878506484837098,1175.151965426498
3796.6455,0.8860882556716089,1098.6613937092782
3797.519,0.8844747574124547,1226.5853977297802
3798.3926,0.8830513085213438,1288.3113726128877
3799.2686,0.8818952975941345,1315.933290408001
3800.1426,0.881183533314902,1232.098640342239
3801.0188,0.8811287491501091,1248.8972613400047
3801.8933,0.8818460681408801,1139.6578368186426
3802.77,0.8832741402840505,1296.1227646974041
3803.6448,0.8852582031170333,1466.14758643563
3804.522,0.8877311684159355,1504.001753096563
3805.3972,0.8906967941860895,1185.4076295173343
3806.2727,0.8941203315787006,1270.060740512591
3807.1504,0.8977289597553485,1253.8294989593296
3808.0261,0.9009601352434949,1251.4858929590164
3808.9043,0.9032652268067567,1157.3793480225074
3809.7805,0.9044396194759156,1274.5912500649522
3810.659,0.9048535779583883,1266.085103407366
3811.5356,0.9051884665656884,1450.3419218357944
3812.4126,0.905964397528903,1466.0235934820705
3813.2917,0.9071996574648266,1204.3964339231356
3814.169,0.9084278198777279,1048.6616671271902
3815.0483,0.9090354317520044,1194.9343488435866
3815.926,0.9086037061607626,1174.8608920740692
3816.806,0.9070906312050089,1321.0106684688405
3817.684,0.9047788621836762,1136.5083486767103
3818.5623,0.9020849964225229,1230.232131824131
3819.4429,0.8994239204523179,1313.3225848683087
3820.3215,0.8971591151553621,1346.3683152842368
3821.2024,0.8954758471642281,1328.003532995756
3822.0815,0.8943103663182433,1290.617620760663
3822.963,0.8932619318703573,1326.3067860777069
3823.8423,0.8917318760748902,1245.2158881547498
3824.722,0.8891829298830454,1294.030241551657
3825.604,0.8854061406130251,1242.1561066246534
3826.4841,0.8806230776115573,1431.1140315321252
3827.3665,0.8752376809092779,1128.198543720335
3828.2468,0.8696716638566815,1353.7151730690898
3829.1296,0.8641459605472366,1297.8883948772752
3830.0105,0.8588259285878269,1254.8441046127361
3830.8916,0.8537775628711374,1229.80415310726
3831.7751,0.8489778640273501,1509.2059442763584
3832.6565,0.8443157224652669,1397.5182256472133
3833.5403,0.8396221669847017,1577.5140420001273
3834.4224,0.83502140241047,1396.9879430374117
3835.3064,0.8310092806321165,1400.6210989437484
3836.1887,0.8283877130866545,1589.4688593658377
3837.0713,0.8278117044019024,1631.416595448092
3837.956,0.8294983564417833,1216.5754237343203
3838.839,0.8331634866870081,1352.2015688353526
3839.7244,0.8382875566261317,1355.3854416806598
3840.6077,0.8443453192388022,1699.237261538206
3841.4932,0.8511109558366543,1311.1375912315928
3842.377,0.8586156175128931,1304.0642634667843
3843.261,0.8670723842209741,1347.5922529284824
3844.1472,0.8764368572791382,1272.8576226554653
3845.0315,0.8859906474026145,1227.641591990628
3845.9182,0.8945775169560118,1190.1099580538094
3846.803,0.900983533077091,1180.068228532208
3847.69,0.904753666098995,1154.4766948623724
3848.5752,0.9063728438002897,1181.963457610337
3849.4604,0.9070976785107521,1037.7395863798197
3850.3481,0.9083275997654687,1193.6578930822773
3851.234,0.9110210560252446,1040.842986162308
3852.122,0.9154265317271285,1157.137834777765
3853.0083,0.9210369384120262,1190.5506570865919
3853.8967,0.9268927811183868,1321.9487273968266
3854.7832,0.9318758677862574,1218.3070277617564
3855.6702,0.9352871500513781,1241.440129134876
3856.559,0.9371052032815163,1094.513381624785
3857.4463,0.9378833687868763,1149.7748468287048
3858.336,0.9382970519294249,995.7277810005244
3859.2234,0.9386887423978997,1025.6949942439703
3860.1135,0.9389857930901927,1093.316744811987
3861.0015,0.9388835874579065,1125.2675595634962
3861.8896,0.9380933238409918,1098.5261669449628
3862.7803,0.9364937151942694,1254.1363174590963
3863.6687,0.9342215206414818,1125.6117025526823
3864.5598,0.9315920661978824,1262.3907405735247
3865.4487,0.928954772513874,893.7397507104643
3866.34,0.9263993317806979,1197.7896734907042
3867.2297,0.9237187204032258,1063.0938846122692
3868.1213,0.920517984840346,1348.2588823535903
3869.0112,0.9165320381337492,1246.416432501072
3869.9014,0.9117226873928014,1191.1853164747426
3870.7937,0.9062215652677733,1236.4352673654232
3871.684,0.9002139770850485,1415.5694685420426
3872.577,0.8937535725320443,1234.8562418277093
3873.4678,0.8868981922288623,1385.3582885144901
3874.361,0.8796331043212777,1424.3002575797661
3875.2524,0.8720173839927541,1297.1322525211244
3876.1438,0.8640620329668274,1199.1857049902067
3877.0376,0.8558076954784499,1294.5636056392962
3877.9297,0.8474313967489552,1239.423777998238
3878.8237,0.8390779399468107,1432.1097291232845
3879.716,0.8308873729918519,1546.4949979449138
3880.6108,0.8227721040902031,1417.9334425685365
3881.5037,0.8146160737643385,1556.0371393393364
3882.3965,0.8062710830731149,1841.0809990887003
3883.2917,0.7976626383330243,1464.203380121073
3884.185,0.7887985375545633,1471.760923651919
3885.0808,0.7795966455542598,1515.5218146462748
3885.9746,0.7701926782265455,2006.804608584067
3886.8706,0.7609063250704626,1761.5431988188661
3887.765,0.7523795983616203,1634.0445582935263
3888.6592,0.7452900706701683,1881.2913547339183
3889.556,0.7403377608587062,1970.8891423872285
3890.4507,0.7382226217835333,2226.8860126793406
3891.348,0.7393843973623355,1770.8950905822755
3892.243,0.7437510323211902,1745.764257298602
3893.1406,0.7506640081407757,1688.3853745071224
3894.0361,0.759051454170648,1504.3863436829847
3894.932,0.7680072664083967,1592.2397768181672
3895.83,0.7770953262064363,1800.503277534715
3896.7263,0.7863346754974596,1631.4537360017443
3897.625,0.7961573499770573,1628.4842820003792
3898.5215,0.8069100039065,1415.7549575823007
3899.4207,0.8187769928807526,1671.127613478039
3900.3176,0.8313788925778618,1309.2073356736587
3901.2148,0.8440233337101474,1466.2371411144134
3902.1145,0.8558785675125944,1199.0463115257364
3903.0122,0.8662974841763473,1695.9271132449755
3903.912,0.8752861575009139,1276.0269848488886
3904.8103,0.8832371711576545,1239.591408206079
3905.7107,0.8907574258177667,1107.0222008219919
3906.6094,0.8982155226497323,1286.5662392824004
3907.508,0.9057463343812318,1158.909782106638
3908.409,0.9132323072826531,1098.7862333700846
3909.308,0.9203362365100171,1280.1074059008454
3910.2097,0.926820474867589,1071.02498335663
3911.1091,0.932699122119436,1181.1499256555967
3912.011,0.9384532490051068,1312.08525399038
3912.9111,0.9446124224251057,1128.3132519166868
3913.8113,0.9514060029089897,1223.3530949990027
3914.7136,0.9585443202588569,1130.6815541585138
3915.6143,0.9653400624919716,1160.5861173771273
3916.517,0.9711599439675613,999.6352607431193
3917.4182,0.9756138528773763,938.5840430508974
3918.3215,0.9788012399385618,996.9498484431361
3919.223,0.9811762935981088,1111.9671450438636
3920.1245,0.9833665193407748,931.6286184579214
3921.0286,0.9858739112249923,973.6145153818472
3921.9307,0.9888932294283226,1000.2569110288589
3922.835,0.9923169108077238,1066.669797593461
3923.7373,0.9957360978041178,998.4605880857335
3924.642,0.9986703126676026,956.6343962025167
3925.5452,1.0007812479542109,1031.4706757536935
3926.448,1.0021244140644927,914.861428378093
3927.3535,1.0030434109636657,1082.189203786946
3928.257,1.0038228802729292,931.1545011785375
3929.1628,1.0043874152581462,979.0710009637965
3930.0667,1.0042752130031798,941.1754812862858
3930.9731,1.0029581306073385,1051.6700602382268
3931.8774,1.0002663115530483,1105.656312550191
3932.782,0.9965785145524279,1028.7918730098568
