wavl,flux,ivar
3566.9744,2.3351955018153334,98.68271125619471
3567.795,2.3312359806226843,97.87068668014128
3568.6177,2.3268147572040188,104.85984369078369
3569.4385,2.322235407701823,108.26602008780563
3570.2617,2.3175552060397497,77.84066298856496
3571.083,2.3131670865203637,94.37776473350532
3571.9065,2.3101418782254255,70.64835162481641
3572.7283,2.3100020962525556,123.65632361681226
3573.55,2.313620674426067,109.28621152322663
3574.374,2.320375547010188,87.8722426830534
3575.1963,2.328177530018518,103.17414306055706
3576.0208,2.3346958544306133,78.18795475175251
3576.8435,2.3384870401387867,98.19443421621884
3577.6682,2.3396607581196642,86.38098720916916
3578.4915,2.339471674784812,94.68418827382739
3579.3145,2.339444977368275,87.34265057538626
3580.14,2.3404217954238278,92.91486131390731
3580.9636,2.3421069178117278,81.7675585754249
3581.7893,2.343441100642325,97.95359675645997
3582.6133,2.3434495140146625,79.52587185354422
3583.4395,2.34188666496748,87.79848807501956
3584.264,2.3391456780956914,105.79682551171231
3585.0884,2.335667830640336,98.70893287427724
3585.915,2.3315074284799038,86.56279464235207
3586.74,2.32640368316419,91.36992561203338
3587.5671,2.3200296582338287,90.30372326940372
3588.3923,2.3123607026353343,92.94159915806122
3589.22,2.3035654386346995,93.94292282526762
3590.0457,2.2940135758715594,94.6858770002528
3590.8716,2.2839914871987497,90.31318534105843
3591.6995,2.2737959698777455,102.54718908664793
3592.526,2.263909143003173,103.2248943701705
3593.3542,2.2548599829279,94.89232657108775
3594.181,2.2471744893837835,113.1411139169367
3595.0098,2.2409158996082823,115.3891915809581
3595.8367,2.235695391328944,95.6672364320975
3596.6638,2.230772432913358,91.83067971204692
3597.4934,2.2255706433226417,113.36514398295225
3598.3208,2.2201303261273058,114.67235476240944
3599.1506,2.2150823184058237,108.12204461942649
3599.9788,2.211448083331542,116.02091569126532
3600.8088,2.2101000898305205,114.91683128141584
3601.6372,2.211565408150374,133.96953270792332
3602.4678,2.216024717098314,112.25931782426395
3603.2964,2.223380031442791,96.60483934431512
3604.1252,2.2333388117385216,116.97483775249633
3604.9565,2.2453713828012023,97.79311305126282
3605.786,2.2586165568636214,94.11733535723508
3606.6172,2.2722399244639084,90.45831845672973
3607.447,2.2852927245348433,97.31672684692525
3608.2788,2.2968059514301866,91.38911517341488
3609.109,2.305341357382657,103.1776408260008
3609.9392,2.3092942605267894,98.80537005402823
3610.7717,2.3075130956547665,83.37221681019953
3611.6023,2.3001923213500586,108.14695038011716
3612.435,2.2888768583982424,105.09388041825876
3613.266,2.2757614244392395,88.1848048244554
3614.0994,2.262546220664061,102.63155477133463
3614.9307,2.2502921444047566,98.52749121340078
3615.7625,2.239347641907357,99.73891640178319
3616.5962,2.229704148656129,97.87795005199663
3617.4282,2.221083559454775,94.450887256121
3618.2625,2.2128212182644904,101.70246484236432
3619.0947,2.204260422347065,103.16257754578831
3619.9292,2.1950100952255513,99.18240318221727
3620.762,2.185431702435575,109.68652599764775
3621.595,2.176362439847122,124.44021164861823
3622.4302,2.1686640649828837,114.69302550628066
3623.2634,2.162762804673743,105.58077962271778
3624.0989,2.158390586877239,115.37047752322061
3624.9326,2.1549256867860147,109.97584311314601
3625.7686,2.1515961743621306,114.91724211006087
3626.6028,2.147705757859092,111.27709110065618
3627.437,2.142631887883847,133.76458828973088
3628.2734,2.1359765592328834,113.45663454275065
3629.1082,2.1278726604598064,105.33567754630693
3629.945,2.1189066995777877,129.55582354067664
3630.78,2.109833013652798,109.27347031216827
3631.6174,2.100777523898707,111.18193995680568
3632.453,2.0912684417925456,119.86353661496031
3633.2883,2.0806326213043564,112.50609745019426
3634.1262,2.068811071060242,121.98332193886701
3634.9622,2.0567632236822857,139.8649078008567
3635.8005,2.045887340630223,140.92607119742735
3636.637,2.037530737476028,132.31722509014887
3637.4756,2.032052506966401,146.83045455880784
3638.3123,2.028572239752618,159.8409028096233
3639.1492,2.025081799902816,133.39637020699627
3639.9885,2.0194758599607203,122.58790498786855
3640.826,2.010945158888105,132.61501074407653
3641.6653,2.000636990800957,162.13629976958322
3642.5032,1.9912405805765658,163.65230906729914
3643.343,1.9851807793929486,179.66297503982054
3644.1812,1.983144329157443,157.43113306555344
3645.0195,1.9836020875256077,160.16305241310727
3645.86,1.9839384405913147,133.25654023539545
3646.699,1.982085300437005,140.04916362048434
3647.5398,1.977518842169658,151.81520241872158
3648.379,1.9710104611525032,168.611900549784
3649.2202,1.963499151712007,156.21051076573863
3650.0596,1.9555319699392018,153.5739529567973
3650.8994,1.9473849430461996,144.7795892523522
3651.7412,1.939719038707729,167.30918935455907
3652.5813,1.9336648886482408,159.84401123906233
3653.4236,1.9300898826411788,165.07217213189833
3654.2642,1.9290572961225871,166.69077865300204
3655.1067,1.9297493822454337,127.86772677834398
3655.9475,1.9311322604099712,165.66592164639601
3656.7886,1.9326851580823634,171.41207850610854
3657.6318,1.9346147274554262,167.55709655231067
3658.4734,1.9374320956318798,144.5636767386804
3659.317,1.9414208088894789,139.40086197899214
3660.1587,1.946402396173532,173.43116897833013
3661.003,1.9521048963706527,155.94837280569038
3661.845,1.9584422671922648,166.70603942928034
3662.6875,1.965618058045238,156.26987792636288
3663.532,1.9736464554233017,141.92261334963226
3664.3748,1.9818622564695556,145.81194069951908
3665.2197,1.989027150292446,139.84772015659777
3666.063,1.9936444354916323,139.17142160338565
3666.9084,1.9946580789074733,144.59452274374559
3667.752,1.991776079449664,143.8853096971
3668.5977,1.985597808591121,116.73416615005422
3669.4417,1.9774637270677833,143.26191430316572
3670.286,1.9688557849637205,159.0192103949419
3671.132,1.9607946377908516,156.84236269218596
3671.9768,1.9535844146825245,151.5317563030638
3672.8235,1.9469876325825337,155.61630443516626
3673.6685,1.9409019664947742,152.27264277132087
3674.5156,1.9355104386811404,149.59303890540983
3675.3608,1.9312045995853573,145.23584754973936
3676.2063,1.928156023529605,159.34567563955585
3677.0542,1.9261824357935284,172.96913468504923
3677.9,1.9247382334572127,160.29098790147012
3678.748,1.9229918950864926,156.6674241717082
3679.5945,1.9201335593459474,152.2817727599222
3680.4429,1.9157156623346332,171.39896099768688
3681.2896,1.9099415307258545,192.11277241828614
3682.1365,1.903453636861754,174.53350104291525
3682.9856,1.8969697854933685,170.62700346558395
3683.8328,1.8910825786884053,154.32149853031916
3684.6824,1.886147165961188,167.3345290093635
3685.53,1.882462566302472,182.15541861141213
3686.38,1.880218241585721,180.6141804854351
3687.2278,1.879675949786421,174.52119766284403
3688.0762,1.881240531831585,171.06701554267823
3688.9265,1.8853766779246086,166.96596019585036
3689.7751,1.8921768634695078,185.78510884772447
3690.626,1.9011481170568287,148.26472033652436
3691.475,1.9112115914140546,179.8582419815507
3692.3264,1.921222305006661,156.7260053859458
3693.1758,1.929960845077572,153.21793970714717
3694.0254,1.9362145271513715,150.76043145243318
3694.8772,1.9387934300575727,166.4915834172997
3695.7273,1.9371352876317591,167.69528417282697
3696.5793,1.9319092496084258,138.31862310895713
3697.43,1.9248643609641125,169.3858272612963
3698.2825,1.9178413933937464,150.67115019256482
3699.1333,1.9119512468129254,156.3346240539792
3699.9841,1.9071872770900353,168.78797788045196
3700.8374,1.9027816942535938,184.25058459755178
3701.6887,1.8977810561791968,175.81835672492096
3702.5425,1.891521698829067,146.48740265645387
3703.3943,1.8841555008709612,161.2253964528967
3704.2483,1.8765413617020839,172.94216119973876
3705.1003,1.8698690240602134,168.34671235490396
3705.9526,1.8647827078798391,179.01602629308408
3706.8074,1.8610172480406022,176.56883403469317
3707.66,1.8576153471238115,161.6420899988308
3708.515,1.8534741571326294,157.42246640006292
3709.3682,1.8479177171786356,200.08996661093838
3710.2234,1.8407125544018992,193.41480531892034
3711.0771,1.8321562862452796,160.1503513254623
3711.9307,1.8231709546004506,186.11049262855258
3712.7866,1.8154230140101935,171.5477246264271
3713.6409,1.8108918016767217,221.75657756038163
3714.4973,1.8107283151630005,184.72894026373066
3715.3518,1.8146718716715444,176.07559187110974
3716.2085,1.8214175144973457,191.92066277696821
3717.0635,1.8295540076772507,186.6796362110593
3717.9185,1.838316329875386,192.00879767163988
3718.776,1.8474700866496234,178.73816716443517
3719.6313,1.856763101822049,162.40461340824118
3720.489,1.8657256972853373,168.53607285925955
3721.345,1.8733514074292386,159.3805993476878
3722.2031,1.878402242322332,125.01861579086305
3723.0593,1.8798545128610176,166.9375130323114
3723.9158,1.877713814496247,165.5218636489873
3724.7747,1.8731259490026617,170.88498375077006
3725.6316,1.8677941760827164,166.04824723310796
3726.4905,1.8629515303753441,155.76196369743974
3727.348,1.8589666665915368,168.51798807853615
3728.2073,1.85540575155522,175.16043881873713
3729.065,1.8514939424103474,183.20337168406397
3729.9229,1.8464532469776507,160.82092354316967
3730.783,1.839888528370813,182.54422693074085
3731.6414,1.8320840246097532,157.7223593896293
3732.5017,1.8237701891283848,205.25904931231867
3733.3604,1.8157837458256296,182.46133057457214
3734.2214,1.8085298076016858,179.74911855483896
3735.0803,1.8021244023704293,180.7227465750606
3735.9417,1.796500104167775,187.81983386528245
3736.8013,1.7916911027680382,191.55797597143612
3737.661,1.7876633718713022,188.22034807022055
3738.5227,1.7842905840831031,176.29653245932488
3739.3828,1.7814517447765943,192.64898756459849
3740.245,1.779069429973436,191.55452560336298
3741.1055,1.7771161571912066,203.41841242351782
3741.9683,1.7755018751960736,195.44043072954327
3742.829,1.7742381687469846,199.73730443761744
3743.69,1.7737083935250495,193.086065887621
3744.5532,1.7749475103698962,193.5311150122303
3745.4148,1.779620262121673,211.59469234167392
3746.2786,1.7896084376428942,217.21708818534623
3747.1404,1.805843696099687,200.70788244461122
3748.0044,1.827088673154203,211.45670517071952
3748.8667,1.848965845831216,184.01231718786894
3749.729,1.8656488444215895,161.85447477955003
3750.5938,1.8728793695907509,193.25997077713765
3751.4565,1.8704775508394194,203.46405422316596
3752.3215,1.8619689612370345,161.18947027293427
3753.1848,1.8517117822138178,162.69861488708332
3754.0503,1.8423397819946374,174.5229510874502
3754.9138,1.8346098921722223,174.19719001862077
3755.7776,1.8282590143121547,175.27149116719715
3756.6438,1.8228599043697082,166.18515714930993
3757.508,1.817927834329736,160.12845850519713
3758.3745,1.8127453662866952,171.48513135042495
3759.239,1.806683748773736,160.02851550585274
3760.106,1.7995197770351554,176.34885598334483
3760.971,1.7918094620486906,164.2728201383382
3761.8362,1.7845857293960115,188.72514324577418
3762.7036,1.7788857724845455,184.72427271060454
3763.5693,1.7752179085938815,191.3143659503231
3764.437,1.773216429861821,171.49790169457626
3765.3032,1.7718660458651179,182.79882270364516
3766.1714,1.7699117175633468,176.94461702414426
3767.0378,1.7664120605486688,202.57793968875356
3767.9043,1.7610997846838143,185.42822064485415
3768.7732,1.7544996117563205,177.4001562149698
3769.6401,1.7477882289195616,224.59143144804096
3770.5095,1.7421520126501897,196.39725172386824
3771.377,1.7383160759232226,198.01321984462098
3772.2466,1.7361953190008987,202.01498376550342
3773.1145,1.73529858405084,190.20739999426186
3773.9824,1.7352900020474746,225.62376032481404
3774.8528,1.7363401279282364,241.97802683398749
3775.721,1.7389181731126222,207.9714069208904
3776.5918,1.7433900235236182,187.36698669150698
3777.4604,1.749643776031765,222.16061632552743
3778.3315,1.7571179745440881,196.01627608742822
3779.201,1.7648282268748277,200.7099510410299
3780.0703,1.7718157692545502,192.93153701763688
3780.942,1.7774675804502247,194.16795646990323
3781.8118,1.7816329605534178,162.0637855612812
3782.6838,1.784519864749235,181.79143653035518
3783.554,1.7862695367225179,165.30571908457568
3784.4265,1.7868399558975803,164.13099842106138
3785.297,1.786125968649656,181.4310300891838
3786.168,1.7842421749238462,183.25943971343636
3787.041,1.7815259516172575,210.9754676754871
3787.912,1.778251245579138,206.49056933722588
3788.7856,1.7742514168752601,168.97309745761254
3789.6572,1.7690411017417293,171.6053484929232
3790.531,1.7621764672098024,192.19705762707235
3791.403,1.753809139630599,193.85303476090388
3792.2754,1.7446850316221882,200.89043164972355
3793.15,1.7358873875521088,199.04928325084543
3794.0225,1.728434502612387,197.22151721649342
3794.8972,1.7227752341378642,213.8572145277975
3795.7703,1.7188227583713571,206.18603901047868
3796.6455,1.7159992432696767,197.3197203732974
3797.519,1.7135796546530235,198.43116958489466
3798.3926,1.7108947610776402,204.10222040983885
3799.2686,1.707507085289496,203.2431038121688
3800.1426,1.7033041407846419,215.89223768577898
3801.0188,1.6984373225103924,220.9748021816753
3801.8933,1.693346051243634,228.64760698775444
3802.77,1.6885335558539896,247.150211667877
3803.6448,1.6844905099037761,179.25832429904673
3804.522,1.6816092986193731,210.89986808328464
3805.3972,1.6804256970945823,259.0600258302137
3806.2727,1.6815785796967915,199.36105399801792
3807.1504,1.6854904916134137,229.10540258647333
3808.0261,1.691826658989024,223.3845326771491
3808.9043,1.6994923175180663,210.25033395452198
3809.7805,1.7070369883881318,180.7018134619593
3810.659,1.713545639527832,190.36424102749422
3811.5356,1.7189446259880232,203.72903481852362
3812.4126,1.7239382965531056,198.44714019208433
3813.2917,1.729300049171463,186.566214669082
3814.169,1.7351103245235773,203.34496798600657
3815.0483,1.7405587872650956,170.1957520363971
3815.926,1.7442245004113635,183.26035203770192
3816.806,1.744914494233486,197.34040397445457
3817.684,1.7421855293528563,175.37432865319835
3818.5623,1.7364674306373942,179.11732438379198
3819.4429,1.728739558855971,200.39833783443683
3820.3215,1.7202099503483514,192.55816341487727
3821.2024,1.7118496401875234,199.71786078008398
3822.0815,1.7043973761823303,225.1029410121841
3822.963,1.6982060779875936,227.05534506358208
3823.8423,1.693355460604098,229.09589491171874
3824.722,1.689489238974871,221.9385469451939
3825.604,1.685924004384073,204.88864689371033
3826.4841,1.6819657167159203,215.94888826508472
3827.3665,1.6772760915961273,210.72636985269048
3828.2468,1.6721755417981405,211.30377145879277
3829.1296,1.66733700027649,246.01096060612952
3830.0105,1.6633323818610806,226.25632994064742
3830.8916,1.660088858640183,205.94306225943532
3831.7751,1.6569270656258568,202.48308476923364
3832.6565,1.653033738467899,227.9117188992679
3833.5403,1.6479571767116463,233.47426938149934
3834.4224,1.641959207732521,214.5927039774571
3835.3064,1.6358024405661171,219.18030206267915
3836.1887,1.630544540145442,247.29274237429624
3837.0713,1.6272418113435545,291.5808553566468
3837.956,1.626914277833135,236.9875769596502
3838.839,1.6303365853377552,244.04091660299343
3839.7244,1.6376634050179852,239.41964793070693
3840.6077,1.6480807718269712,237.04469577194737
3841.4932,1.6601623283179427,190.9656483646293
3842.377,1.6723461290779777,217.35889648097847
3843.261,1.6836422830156472,249.25604175432773
3844.1472,1.6935673815002317,206.13295261277497
3845.0315,1.701772083261126,228.13112926486062
3845.9182,1.707947327166103,162.29932772370384
3846.803,1.7116467360760965,189.5061762726085
3847.69,1.7125207328190166,184.24257056163884
3848.5752,1.71039244028414,209.82375896781986
3849.4604,1.7054071001945135,169.0748877048514
3850.3481,1.6980568202107622,192.35062286778967
3851.234,1.6892736436512665,197.51298298790005
3852.122,1.6802343041733616,206.59917714262238
3853.0083,1.6723169058287437,219.5351080657064
3853.8967,1.6665185037893122,199.61925217045587
3854.7832,1.6631120942791555,214.95592266615978
3855.6702,1.6613655574129906,214.0099253182133
3856.559,1.6599667387524584,219.97333769556457
3857.4463,1.65772208719689,217.85171222669803
3858.336,1.654085503567145,223.87110737281648
3859.2234,1.6492789512329717,209.52183767045807
3860.1135,1.6438855266851389,213.82147887366463
3861.0015,1.638550147709711,230.31713877291034
3861.8896,1.6336683442768425,234.6264948488054
3862.7803,1.6294094340810306,200.69356316051162
3863.6687,1.6257539275432868,217.82461472409625
3864.5598,1.622403428564693,237.26639766434656
3865.4487,1.6189301571260026,225.9113140791175
3866.34,1.6149558269561037,237.55489714456158
3867.2297,1.6105755094551404,252.21064434011805
3868.1213,1.6064642521082522,243.5082602977417
3869.0112,1.6037574876638265,265.3332531340193
3869.9014,1.6034824626751685,233.8325316748815
3870.7937,1.6060740803718816,235.46512304956318
3871.684,1.611155030434852,260.6666085228511
3872.577,1.6179055044025177,221.20662321015587
3873.4678,1.6254753696984494,215.58936877884247
3874.361,1.6333309193856878,235.25250536085974
3875.2524,1.6409390140988922,218.81642533069646
3876.1438,1.6476570719380106,196.7980663360722
3877.0376,1.6527052900369523,224.78511006412356
3877.9297,1.6554351500858202,215.76944645729506
3878.8237,1.6556744881374919,197.63908656521696
3879.716,1.6536768339486356,196.5883206143249
3880.6108,1.6498881214699181,201.94521691485693
3881.5037,1.6447719217582468,212.4498578370879
3882.3965,1.6387601616397887,206.0361298328742
3883.2917,1.6323815342836219,216.33818344155142
3884.185,1.6262922033026275,222.9394131587615
3885.0808,1.6209142499683364,211.70720088596897
3885.9746,1.6162992561128484,235.88172246755343
3886.8706,1.612059275377664,229.08209327697
3887.765,1.607789929765402,221.51086757226568
3888.6592,1.603340360843833,221.9998241241055
3889.556,1.5988774714200074,235.55420826705557
3890.4507,1.5946780272956769,230.4243565117052
3891.348,1.5908170347465789,237.3931860451958
3892.243,1.5872857722945382,228.1485449024854
3893.1406,1.5841438924057831,243.9157886438406
3894.0361,1.5816980603747142,260.01731308437485
3894.932,1.580237511871554,245.8732867077376
3895.83,1.5797685201664342,229.09852581286106
3896.7263,1.579975798561463,222.7941520266687
3897.625,1.5805654689530673,236.0871889212338
3898.5215,1.5816748466581754,217.2893173642922
3899.4207,1.5839355220232807,265.9311435051511
3900.3176,1.58801653407843,245.2752622097802
3901.2148,1.5940797731246685,233.94695544097726
3902.1145,1.6015185336685809,216.63069927793367
3903.0122,1.6091929206529394,248.6464788820237
3903.912,1.6162364536933826,211.28772824538763
3904.8103,1.6224472104711434,226.34074931707806
3905.7107,1.6283307900366095,240.54387727052753
3906.6094,1.6343682634137882,211.9515293519924
3907.508,1.6404939149157338,208.06854893375726
3908.409,1.6459712678277012,205.80605770974515
3909.308,1.6497947353695033,202.79989635601848
3910.2097,1.6513256466550104,194.74049791070317
3911.1091,1.6505326938535214,220.3646384274087
3912.011,1.6479862144723698,191.81178756644297
3912.9111,1.644602253153326,204.01553425041703
3913.8113,1.6412194548466175,214.465677632496
3914.7136,1.6382204738081636,194.8361226847548
3915.6143,1.6354023166591258,222.9106634137315
3916.517,1.6321739748055717,233.55397452882906
3917.4182,1.628086095474872,211.11332461704853
3918.3215,1.623085888626867,259.2449470241953
3919.223,1.6175492726918586,243.2234333351729
3920.1245,1.6119944673641737,230.35342426277077
3921.0286,1.6069984748154924,254.87487060978015
3921.9307,1.6031936648739202,239.10281402712738
3922.835,1.6010295229095015,245.8742159732767
3923.7373,1.600522329886135,236.91970179301907
3924.642,1.6009985844663173,246.27420940988173
3925.5452,1.6012674622826737,213.64088774128064
3926.448,1.600139191282551,227.4054998391806
3927.3535,1.5969550675807995,239.88298938935486
3928.257,1.5918302504472917,214.38699023182832
3929.1628,1.5853389928073762,254.78708516964065
3930.0667,1.5781398178534858,240.45812011078206
3930.9731,1.5706120167183928,248.54551166488065
3931.8774,1.5631734440152472,220.89511924006845
3932.782,1.5565056947022915,250.5531489276482
