wavl,flux,ivar
3566.9744,1.660249781599489,353.487893568511
3567.795,1.656770539680139,376.005257632066
3568.6177,1.6534624015294,458.46649510749404
3569.4385,1.649871484531816,363.79520356034993
3570.2617,1.6456163751437043,402.50160022775617
3571.083,1.6408700965620213,456.4947641061949
3571.9065,1.6362450966413,427.84636053854297
3572.7283,1.6325159180284994,415.35550925494664
3573.55,1.6301813020940994,396.85286970441007
3574.374,1.6293673471262162,489.4656060442813
3575.1963,1.6298916319902095,423.87057857404494
3576.0208,1.6314285583850718,430.97881810858684
3576.8435,1.633653737619645,345.2449844954973
3577.6682,1.6362800958375672,405.40753166733913
3578.4915,1.6388846158580714,440.1220945913272
3579.3145,1.6408299430465272,399.52248382166476
3580.14,1.6413897566696856,454.00374840400605
3580.9636,1.6401798375763939,362.05237562547217
3581.7893,1.6375749746726145,389.08753252757333
3582.6133,1.6346405310486698,403.95380413409504
3583.4395,1.632391089411794,393.8767429028955
3584.264,1.6310384000276597,424.0615940990634
3585.0884,1.6298355681138847,447.86013654239326
3585.915,1.6278172224580536,378.403161767908
3586.74,1.6246803075828768,427.5830096987843
3587.5671,1.6209654209501125,465.26926538472935
3588.3923,1.617640907144358,408.07439506177667
3589.22,1.6154653061745319,391.5030478022909
3590.0457,1.6148093764914542,403.04008549551827
3590.8716,1.6156438479953497,432.590919660471
3591.6995,1.61763298042985,442.87026795424345
3592.526,1.620125766524977,471.05494082713045
3593.3542,1.6222577066354782,440.55702054172525
3594.181,1.623133957484714,345.9152154127829
3595.0098,1.6221830037839118,384.59515463565765
3595.8367,1.6193957801647028,377.7409758407276
3596.6638,1.6152741599388172,360.7024512655638
3597.4934,1.6105042779531316,438.585517340413
3598.3208,1.6057228239625614,377.4836185068302
3599.1506,1.6014292583987246,367.86980991183646
3599.9788,1.5982267386490376,424.43824708746655
3600.8088,1.5966404162585834,469.44121512351325
3601.6372,1.5967779886647913,432.75723953981185
3602.4678,1.598029128449861,479.8857117162452
3603.2964,1.5993149914311278,487.12558810615917
3604.1252,1.5997588282858564,385.55183589376315
3604.9565,1.599165914920432,499.8583387116012
3605.786,1.5979303933445792,419.475190503149
3606.6172,1.5964717085521178,384.26115449258805
3607.447,1.5948396238591394,409.1038451782328
3608.2788,1.5927737290303134,385.2843404241968
3609.109,1.590105570320387,436.31421439566157
3609.9392,1.5869633069074018,469.69126791998895
3610.7717,1.5837278249586546,469.29266110407576
3611.6023,1.5808753630738193,470.70615978654075
3612.435,1.5787691707506557,448.5685851973419
3613.266,1.5776263861823125,418.7948385754748
3614.0994,1.5774800653019387,420.9280486591035
3614.9307,1.5782875517367645,424.56686528453776
3615.7625,1.5799818030020214,427.32063589950883
3616.5962,1.582380039450779,433.59371785551417
3617.4282,1.5850057906646096,435.7006341335343
3618.2625,1.5871680844021934,414.21167827961773
3619.0947,1.5882084924785391,435.28905361415656
3619.9292,1.5878153858204076,470.5302905392934
3620.762,1.586026244819927,450.1310427356075
3621.595,1.5830535811342699,480.77935205246996
3622.4302,1.5791662977967447,425.60868691533835
3623.2634,1.5748085522936959,433.01901855292243
3624.0989,1.5706189664213475,403.0141478828739
3624.9326,1.5673423378915052,463.49152216969924
3625.7686,1.5653395615559464,424.92079844312127
3626.6028,1.5643350653627397,460.719813691735
3627.437,1.5635476779349324,461.9424826962164
3628.2734,1.5622946042541452,494.9076763822083
3629.1082,1.560504388675894,395.3001195451604
3629.945,1.5586808426160428,523.5299992996269
3630.78,1.5574602419734256,436.40729020164304
3631.6174,1.557104417913903,475.6708206452199
3632.453,1.5573845560941593,415.98692363235284
3633.2883,1.5577656623563496,489.30826067804884
3634.1262,1.5577384202930138,438.2371654246951
3634.9622,1.557096526109924,505.36447694538344
3635.8005,1.5560340448750873,473.670445353519
3636.637,1.5549977127291759,432.63832979258706
3637.4756,1.5543193746055333,417.47210556418935
3638.3123,1.5539569766339247,433.24905665879965
3639.1492,1.553539131082594,459.4470768605194
3639.9885,1.5527202962014655,422.286323794932
3640.826,1.5514852171103561,480.30301621373604
3641.6653,1.5500792378966284,513.2040878265022
3642.5032,1.5487094659804093,460.1152927456712
3643.343,1.5473202354400877,457.2175466887461
3644.1812,1.5457690296767113,491.23847256027
3645.0195,1.5441376490089593,478.24215141021864
3645.86,1.5428603736564832,475.67179932329327
3646.699,1.5424692484624631,494.99851234594234
3647.5398,1.5431535565289989,434.4828520531564
3648.379,1.5445300085493388,440.0112304499057
3649.2202,1.545760856379693,411.3962646054408
3650.0596,1.545924928427978,456.32960934600385
3650.8994,1.5445130951172923,419.15674782725443
3651.7412,1.5417004100577822,452.00315466033857
3652.5813,1.5382481056016333,416.65677080862093
3653.4236,1.5349307739853117,535.1645161645874
3654.2642,1.5320863086163552,450.0222627698835
3655.1067,1.5295532530636053,486.9826639988593
3655.9475,1.5272131013439956,415.34355683447455
3656.7886,1.5253344775131488,490.24082604918954
3657.6318,1.5243420675588748,597.9926470820118
3658.4734,1.5241602752028114,366.5850277945147
3659.317,1.523918212439806,470.91821423287047
3660.1587,1.5224696261390545,398.1656573863156
3661.003,1.5192589444714095,466.18276322059563
3661.845,1.5148797175834283,450.9969251495008
3662.6875,1.5107952703492389,451.1656079641476
3663.532,1.508583131812654,518.282080006821
3664.3748,1.5091013575052044,463.0814935676235
3665.2197,1.512115899050476,468.9321881461468
3666.063,1.5165643404676163,493.7264151000338
3666.9084,1.5211438851048649,438.5516047577534
3667.752,1.524627938819292,442.8910348745377
3668.5977,1.5261310266284185,439.7862472583623
3669.4417,1.5252749940932115,448.3284456198291
3670.286,1.5225023851235755,452.16565991972277
3671.132,1.5190518644837752,453.54103271670897
3671.9768,1.516477519739483,490.6888283916512
3672.8235,1.5157878000365455,488.6238631005863
3673.6685,1.5169243638813465,498.5456656350097
3674.5156,1.5188442149591568,461.2384046680002
3675.3608,1.5201392786280887,455.59463155249733
3676.2063,1.5198102457734628,520.0511267621491
3677.0542,1.5176938929913801,458.0856299929502
3677.9,1.514462941346039,478.6366905349939
3678.748,1.5111166293849712,488.095794271757
3679.5945,1.508498005302916,485.3042343050719
3680.4429,1.5069894853201982,431.3671083876151
3681.2896,1.5066029302454318,552.7573242740879
3682.1365,1.506992701610358,424.1793839867648
3682.9856,1.5074146499449332,539.3645989928231
3683.8328,1.5068386667060285,492.38089811900613
3684.6824,1.504423275617582,439.997747191381
3685.53,1.5000749382960943,556.3851355376843
3686.38,1.4945419277821816,477.4929704819922
3687.2278,1.4891477359977494,486.13762735814913
3688.0762,1.4851549988206163,551.6221349857667
3688.9265,1.4833515087791407,462.8120395102797
3689.7751,1.4837658670879776,542.6764093020548
3690.626,1.4857154497500764,531.3529362391404
3691.475,1.4882935947847793,437.75810830358836
3692.3264,1.4910415006815925,495.92632450803717
3693.1758,1.494134574943938,527.9416822493074
3694.0254,1.4979655715533708,444.88049900433066
3694.8772,1.5024142107974765,483.77804977780266
3695.7273,1.5065695751095654,502.0445711055099
3696.5793,1.5092711907345806,482.04131766842994
3697.43,1.5097801968906257,489.0062858771844
3698.2825,1.508177779987648,494.30838463079357
3699.1333,1.5051277257018694,472.395766903302
3699.9841,1.5013617450336696,467.7604480283973
3700.8374,1.4973740355963656,457.9776788052784
3701.6887,1.493522020122207,494.35186608705726
3702.5425,1.4901477960584495,491.85124003351785
3703.3943,1.4876711945874632,506.9519562213964
3704.2483,1.486317185698243,568.5208371430532
3705.1003,1.4859447945033686,444.8698266598842
3705.9526,1.486014195406563,488.0367453890669
3706.8074,1.4858582480979903,474.44836147574176
3707.66,1.4850634370446518,484.32380983306086
3708.515,1.4837216232398671,538.2184206455172
3709.3682,1.4823494934904582,508.6655525103511
3710.2234,1.4814574157526412,524.9530808942635
3711.0771,1.4811711892688608,528.0459279481664
3711.9307,1.4811627207841525,504.31012924375835
3712.7866,1.4809694824886737,486.3142594094875
3713.6409,1.4803867154022023,495.3064219232769
3714.4973,1.4795755893202152,561.3033904517091
3715.3518,1.478798662904497,465.9549325373781
3716.2085,1.4780442065321246,466.26355456450506
3717.0635,1.4769923783973737,434.81700907435936
3717.9185,1.4753131619659232,519.6928465587122
3718.776,1.4730024213912656,538.2654941296503
3719.6313,1.4704695335615359,480.9061347529883
3720.489,1.4682690697251468,541.7733861464473
3721.345,1.4668146009996987,558.791292138885
3722.2031,1.4661234328886992,510.20812705413135
3723.0593,1.4658588203931062,473.90198149138496
3723.9158,1.4655436560767334,544.8402220157983
3724.7747,1.4648451839464982,498.63210727973524
3725.6316,1.4637209998159437,511.38640147817375
3726.4905,1.4623407257714982,498.8585362270716
3727.348,1.4609451373070705,490.41925780033586
3728.2073,1.4597278662711828,488.23469677836965
3729.065,1.4588303526518789,505.03083162796503
3729.9229,1.4582737361902698,507.3184856738579
3730.783,1.4578916605886503,454.7658647300909
3731.6414,1.4573754092783937,542.3079314623126
3732.5017,1.4565270108137898,409.9105217606745
3733.3604,1.4555372259112365,470.72383605186343
3734.2214,1.4548923975286931,566.9924384524319
3735.0803,1.4549409375707671,522.0223096280431
3735.9417,1.4555323779885034,484.5811447301525
3736.8013,1.4561528231721013,561.5271753255238
3737.661,1.456344868994267,539.5138240723668
3738.5227,1.455903558501418,487.58479890261714
3739.3828,1.4547691802051275,550.5438604001331
3740.245,1.4528880841073326,534.239074402171
3741.1055,1.4503017356147498,558.8739918117773
3741.9683,1.4472681847569768,526.08488347494
3742.829,1.4443521477793757,573.7098826828973
3743.69,1.4422091891765483,511.81991869115024
3744.5532,1.4413205869152395,500.0484575776141
3745.4148,1.441762378339272,460.5873483035359
3746.2786,1.4431767631034784,536.2653751531655
3747.1404,1.4449344367803167,538.6144864547285
3748.0044,1.4463578914926618,522.2979597660988
3748.8667,1.4468657497115223,477.30259089365404
3749.729,1.4461827048436293,529.6531222452742
3750.5938,1.4445037015074413,501.5892345044902
3751.4565,1.4425471350270413,539.8294921517377
3752.3215,1.4412440523848278,577.4087675359606
3753.1848,1.441252421583246,489.8136064280864
3754.0503,1.442551507157451,556.9096888746515
3754.9138,1.4445163972960593,446.7874439425232
3755.7776,1.4464208239920806,554.0282375621464
3756.6438,1.4478941887642816,532.413417812828
3757.508,1.4489988865439154,546.8420289011552
3758.3745,1.4499980479179129,544.6244313642122
3759.239,1.4510118253231374,524.1808629907266
3760.106,1.451869098800644,518.3321965168387
3760.971,1.4521201584235783,537.3439351368276
3761.8362,1.4512686222689466,471.3116013250206
3762.7036,1.4490855460795637,533.4205218405962
3763.5693,1.445879186413035,463.05902593153087
3764.437,1.4423789589068023,629.4158589439235
3765.3032,1.4393898801130482,520.3639292074918
3766.1714,1.4373649770244648,517.0224022911307
3767.0378,1.4363680397101155,538.7595108612195
3767.9043,1.4361714301946014,563.1146189774444
3768.7732,1.4363469127720563,525.267508307509
3769.6401,1.4362457948652816,495.91932308341666
3770.5095,1.435153705186922,517.7667526167382
3771.377,1.432706867582265,534.8328684081979
3772.2466,1.4292117759577692,520.1401183874812
3773.1145,1.4255884730297523,479.5910533350548
3773.9824,1.422788898229233,501.4899549537638
3774.8528,1.4212719058197212,487.568434753799
3775.721,1.4208385262153045,527.372204171847
3776.5918,1.4208692077745606,559.0683989893115
3777.4604,1.420763841793897,531.7816159077048
3778.3315,1.4202186839536248,531.0014960757459
3779.201,1.4192721789475864,589.0045573868786
3780.0703,1.4182039145931213,507.8662722605342
3780.942,1.4174392575682893,550.0786503304228
3781.8118,1.4174364398944095,488.5800333343436
3782.6838,1.4184339527988723,573.198057002083
3783.554,1.4201546677853767,550.7091190324707
3784.4265,1.4217887679325065,491.47640532467574
3785.297,1.4223694328993415,561.658023822473
3786.168,1.4213824556040406,507.9997616970417
3787.041,1.4190226715151522,517.8971258516227
3787.912,1.41600451968108,543.3725066062377
3788.7856,1.4130441664136126,562.6297239649383
3789.6572,1.4106007022416223,524.8881276485483
3790.531,1.4088386308697303,608.0201951209428
3791.403,1.4078141041412546,584.775897171504
3792.2754,1.4074553074519771,584.1118992135966
3793.15,1.407471735590142,523.9066783820563
3794.0225,1.4073219432804716,603.6409640938367
3794.8972,1.4063976806716108,571.2479932857728
3795.7703,1.404359429096061,555.1081360865294
3796.6455,1.4013757228858512,577.8272062492327
3797.519,1.3981347475772385,567.5454742916736
3798.3926,1.3954614402513,539.0999121309064
3799.2686,1.3938945001627967,531.8355646326884
3800.1426,1.3934691762760159,551.9366734305736
3801.0188,1.3938335300989781,516.8225152296882
3801.8933,1.3945990967582766,609.9554264292549
3802.77,1.3955630844991327,691.3072599361258
3803.6448,1.3966660559333044,532.8907852274236
3804.522,1.397869204180181,568.2775240960426
3805.3972,1.399054217257961,591.7767935390566
3806.2727,1.4000505977406015,607.2753269703555
3807.1504,1.4006825388510111,527.3967737819816
3808.0261,1.400867219576077,515.3528750646516
3808.9043,1.400700807559564,560.8495803866384
3809.7805,1.4003957473374216,519.8163960739804
3810.659,1.4001015664272256,573.8287579489335
3811.5356,1.3998101157365987,506.89922783826574
3812.4126,1.3994707984940107,572.5131314303119
3813.2917,1.3991922456430934,488.5200568829668
3814.169,1.3992492714929994,603.2175399779394
3815.0483,1.3998328667990605,585.4445727892034
3815.926,1.400803016877034,599.2127090943744
3816.806,1.40172226516757,549.6516591132714
3817.684,1.402120983568412,513.5458562893132
3818.5623,1.4017975718814253,578.8880284860252
3819.4429,1.400867971323944,575.9146878443458
3820.3215,1.399578926248569,633.1366790728282
3821.2024,1.3980114275341253,548.5885851773079
3822.0815,1.3960110587225267,569.1615781690643
3822.963,1.3933325868643174,574.9233772817495
3823.8423,1.3899311138466581,592.9605449837811
3824.722,1.3860117025123135,606.0736816735016
3825.604,1.3819270646913437,609.2524413635012
3826.4841,1.3780280635941562,626.8427014792177
3827.3665,1.3744817837627838,582.8264744005377
3828.2468,1.371315696015679,579.4382308510309
3829.1296,1.3683427041158711,599.6958407956362
3830.0105,1.3652442922309564,603.3983869052073
3830.8916,1.3616479122020853,591.0216792783631
3831.7751,1.3573802442045348,592.3197234940723
3832.6565,1.3526692670423717,569.5525736465156
3833.5403,1.3479923015782522,573.6778087386132
3834.4224,1.3439304320646257,616.0358859564097
3835.3064,1.340913846719437,626.223798410104
3836.1887,1.3392609446656871,577.7476557980741
3837.0713,1.3391061972227396,659.2360306720266
3837.956,1.3403186827961326,608.4123765760719
3838.839,1.342417819806224,666.19362036022
3839.7244,1.3447706431894941,528.3348767813608
3840.6077,1.3469216524937293,619.5900837819148
3841.4932,1.3489425592667783,557.9217059216957
3842.377,1.3514470750662733,623.2737655501193
3843.261,1.355348665631637,640.256208936165
3844.1472,1.3613194017579324,577.2207614345276
3845.0315,1.3691712938103182,521.9475349500557
3845.9182,1.3777532113602264,637.5452831498943
3846.803,1.3852121222870848,543.4529299788703
3847.69,1.3900414854063774,575.3408332786626
3848.5752,1.3918070766595987,510.4248505560567
3849.4604,1.3914278155210447,589.4081104663728
3850.3481,1.3905005754410973,593.0374132920547
3851.234,1.390384798421866,534.9652063226388
3852.122,1.391625782127411,590.5696725404748
3853.0083,1.3940151125306501,535.9850732283122
3853.8967,1.3970187604467055,545.3782260185423
3854.7832,1.4001105807233631,574.6943437378447
3855.6702,1.403030164180851,546.9685167065626
3856.559,1.4058090674958224,522.4231528391742
3857.4463,1.4086147258225017,603.000951792617
3858.336,1.4114936264985223,546.3113244542368
3859.2234,1.4141223454705651,537.4948862016755
3860.1135,1.4159958821521046,581.4465205196875
3861.0015,1.4167115547723248,551.3258238190838
3861.8896,1.4161739489633018,514.9892774847535
3862.7803,1.4144124109835405,543.3211316183357
3863.6687,1.411391417978944,586.1652255499923
3864.5598,1.4069920035251438,525.9442701522061
3865.4487,1.4013189445139296,554.1285036885176
3866.34,1.3947743728305388,515.377069059103
3867.2297,1.3880710320057648,603.1502588846776
3868.1213,1.3818400143123528,582.8812920958045
3869.0112,1.3764937098677885,572.3617260444565
3869.9014,1.3720593695388685,564.8863678833364
3870.7937,1.3682897686645372,610.9478189307804
3871.684,1.3647915790005296,658.9125299169061
3872.577,1.3610880411614081,568.1554046898798
3873.4678,1.3568273814152545,602.9697463177049
3874.361,1.3518046275021196,610.1397251407434
3875.2524,1.3460640930918042,595.700268143094
3876.1438,1.3397892039127264,560.0493421536539
3877.0376,1.3332745737521707,529.0254725264165
3877.9297,1.3268442762615302,635.1458478926287
3878.8237,1.3205586688102398,648.0369874088951
3879.716,1.314288073070547,608.8350311696155
3880.6108,1.3078096923091729,617.6035902546407
3881.5037,1.3011368157398995,771.2872782073783
3882.3965,1.2943782188148822,621.6734510300086
3883.2917,1.287576733995203,657.041993646153
3884.185,1.280664946849748,609.7542986595197
3885.0808,1.2734388771574388,732.4050397991404
3885.9746,1.2658598536481553,668.5303954998292
3886.8706,1.2580620414128514,691.2951587745991
3887.765,1.250643560035833,665.0892930082298
3888.6592,1.2446208200398499,734.2442020854991
3889.556,1.2412415225023907,722.108767480978
3890.4507,1.2413911793167665,709.5216569309467
3891.348,1.2450077771797612,724.6249919279605
3892.243,1.2511363452325215,681.5752704711872
3893.1406,1.258646251645598,692.3503415125017
3894.0361,1.266738464184859,677.3497060937616
3894.932,1.275171788020989,628.061254040234
3895.83,1.2838671591088813,672.475148011137
3896.7263,1.2925323411654575,691.4827007615748
3897.625,1.3008154786340445,621.2128274512389
3898.5215,1.3083836633301378,679.3900078074494
3899.4207,1.3153171205703602,639.2795752192575
3900.3176,1.3219544296016692,583.8330927936133
3901.2148,1.3288150491597361,677.6731608558114
3902.1145,1.3362731639520624,590.0665729983644
3903.0122,1.3443307462982839,572.7352767737358
3903.912,1.3527082681171028,585.0998006410631
3904.8103,1.3608010638229315,579.3321507515008
3905.7107,1.3680883908132224,559.0909454584923
3906.6094,1.3743458153586998,538.0358995161544
3907.508,1.3799057018077663,593.5108465298413
3908.409,1.385350240276104,590.644686799104
3909.308,1.390993323861119,566.5424825654491
3910.2097,1.3967009937311101,533.2680017514991
3911.1091,1.4019822640143484,526.3081631881254
3912.011,1.4065516773316007,528.3653992124571
3912.9111,1.410514327872121,565.4872396750304
3913.8113,1.4143298633435015,494.08590692727074
3914.7136,1.4183857143965528,566.9639414133543
3915.6143,1.4226481458731277,528.649853820959
3916.517,1.4267703583458649,525.4653523121895
3917.4182,1.430388117476726,512.0025006196781
3918.3215,1.433495675432828,572.3036720289463
3919.223,1.4363018986386715,581.3692563064582
3920.1245,1.438919710480791,538.0356060481465
3921.0286,1.44112637557218,499.4917277271571
3921.9307,1.4425166260735893,472.2841330371216
3922.835,1.4428624914564745,500.1187300760138
3923.7373,1.4422180461926046,479.2117418731239
3924.642,1.4408024522505947,495.22650644059684
3925.5452,1.4388768625738015,508.1012179107341
3926.448,1.4367325769819865,596.449754909828
3927.3535,1.4347077799671333,545.7425185239356
3928.257,1.4330856901094873,547.0435514061852
3929.1628,1.4318822940537785,545.1627507464018
3930.0667,1.4308353360152923,529.5768227835263
3930.9731,1.4295132580903132,553.6015562502078
3931.8774,1.4275534509260412,530.6519960747257
3932.782,1.424827327796217,489.72601489270164
3933.6887,1.4215149589281997,581.8429490606061
3934.5938,1.41799745686542,553.9637717013035
3935.501,1.414523132396882,534.808013403627
3936.4062,1.411076639774783,526.0053442392301
