wavl,flux,ivar
3566.9744,1.7053013598409985,438.3201084443877
3567.795,1.7054250716640598,449.2402255467658
3568.6177,1.7040582258431627,442.0057591090513
3569.4385,1.7007629351136133,449.4230919388681
3570.2617,1.6959584218085886,452.83734889603966
3571.083,1.690874129944438,457.4889515609906
3571.9065,1.6868141816607642,458.46301523776407
3572.7283,1.684470089039768,439.977894809737
3573.55,1.683537428045737,430.36964739888913
3574.374,1.6831528681591568,447.3959361372262
3575.1963,1.6825940649920863,387.5216550214369
3576.0208,1.6816725805524868,490.9241646542331
3576.8435,1.680639024388369,521.3599282415756
3577.6682,1.6798816012628177,451.2058776958554
3578.4915,1.679807326647451,465.22385870506685
3579.3145,1.6807715607711424,493.2464444621485
3580.14,1.6828656122889845,481.28572482401194
3580.9636,1.6855498514232936,378.7361063927441
3581.7893,1.6876331988820887,429.53763101382725
3582.6133,1.6877233769346955,470.7572711407789
3583.4395,1.6850261635595871,399.77172868263904
3584.264,1.6798342170226321,446.98208950366507
3585.0884,1.6733131615747656,457.1768084577505
3585.915,1.6668460329921087,451.6005076955824
3586.74,1.6615142087016237,450.6347033708941
3587.5671,1.6578469378655805,439.90193359872
3588.3923,1.6560815342222786,473.6118463113949
3589.22,1.656181260756609,479.76191084146933
3590.0457,1.6577109532774588,458.744516459482
3590.8716,1.6597107440912988,431.8393248540641
3591.6995,1.661000892334933,438.3895822881121
3592.526,1.6607885287756006,472.2870828796507
3593.3542,1.6590828070545154,462.27007485089064
3594.181,1.6565408321642336,461.3364937131961
3595.0098,1.6539384727165163,486.93692970030264
3595.8367,1.6517986441940733,485.4827972261595
3596.6638,1.650208817390229,455.88628504226443
3597.4934,1.648877235401307,462.26566960902016
3598.3208,1.6472277265623916,508.9834815014601
3599.1506,1.6445640805646942,427.1006238101492
3599.9788,1.6404895918007973,478.60832759271955
3600.8088,1.6352692631464871,465.24998951257385
3601.6372,1.6299832661536573,569.8283461298798
3602.4678,1.6259894934571482,463.01729454364477
3603.2964,1.6242654973883832,469.2920013289755
3604.1252,1.6248115156336542,480.54732007347656
3604.9565,1.6267382306307074,456.8162531010811
3605.786,1.6287843781834208,427.6420966405945
3606.6172,1.6300711069214893,522.279397647948
3607.447,1.6304625104593902,494.8502588050375
3608.2788,1.6303864511787232,538.2961921658074
3609.109,1.6302496130102297,417.09910402507427
3609.9392,1.6300366388963592,525.7953058195327
3610.7717,1.6294479434708395,456.4498983284322
3611.6023,1.6283884089622642,490.52805025100855
3612.435,1.6271974581784108,554.8873538529281
3613.266,1.626355096805025,518.8689788096408
3614.0994,1.6259575981393277,527.9076780860144
3614.9307,1.6256314079523753,467.1395801637152
3615.7625,1.6249120517252764,466.8218771157795
3616.5962,1.6236302578096604,506.7821308135109
3617.4282,1.6219250523400774,535.0555807933767
3618.2625,1.6199971552392867,512.6960848609267
3619.0947,1.6180292666599134,480.77662242572
3619.9292,1.6161823794242383,490.7534882682676
3620.762,1.6146139462258204,462.80750797168474
3621.595,1.6133684842616727,487.2270251062122
3622.4302,1.6124063675310345,523.7230782559286
3623.2634,1.6116795456003294,541.3687083113075
3624.0989,1.6110820241044397,539.249034502192
3624.9326,1.6103729371664053,498.9844660844623
3625.7686,1.6092319541830231,488.4452563141461
3626.6028,1.6075224033838076,529.7942860491261
3627.437,1.6054529175805514,503.33440981975605
3628.2734,1.6034871784014988,546.0615374772476
3629.1082,1.6020141783469413,483.66359958806737
3629.945,1.6009298086869617,628.3954947547172
3630.78,1.599572830595082,495.23623283400616
3631.6174,1.5971089398488234,488.9164111288223
3632.453,1.5932547707148181,493.0009287088436
3633.2883,1.5886125084304854,505.85263551869883
3634.1262,1.5843513904798074,554.2666845159899
3634.9622,1.581453782818425,541.7502511922852
3635.8005,1.5800301894355524,517.3812676255054
3636.637,1.5794541633357069,506.51566243059875
3637.4756,1.5789709076175806,478.7166484438774
3638.3123,1.5783049002264342,554.2185738697041
3639.1492,1.5776873103461173,509.58191917942145
3639.9885,1.577465756376732,521.0224078115737
3640.826,1.577751046339803,512.6417616401941
3641.6653,1.5783591085461672,548.2427636861817
3642.5032,1.5789171821168753,518.9348694004502
3643.343,1.5789342483996034,550.0952747704938
3644.1812,1.57783735370075,604.8320514552815
3645.0195,1.5751609054352764,537.489137207186
3645.86,1.5708793110011248,560.4087469488712
3646.699,1.5656772796428913,539.3999589308274
3647.5398,1.5606823463336996,579.4932920180826
3648.379,1.556998872541225,515.762874547706
3649.2202,1.5551380646770825,512.561230905565
3650.0596,1.5549440666058236,500.3297824828454
3650.8994,1.5557413297654141,557.2185349079077
3651.7412,1.5566625148187285,549.3509952644657
3652.5813,1.5569297396341488,642.9027666758807
3653.4236,1.556108171057412,523.848046229048
3654.2642,1.5542103311753617,582.3377416147331
3655.1067,1.551538167070017,581.5163854964735
3655.9475,1.5484028451197,535.9038050471204
3656.7886,1.5449240960998627,548.638377798801
3657.6318,1.5412037490726909,566.095604158498
3658.4734,1.5375803593279427,563.8778638869868
3659.317,1.5344990213145995,603.9054256957103
3660.1587,1.5322828202384449,554.7006205829844
3661.003,1.5309979186393736,486.0070594062173
3661.845,1.5307325680275603,515.4621892343033
3662.6875,1.531761245558259,530.9637668912272
3663.532,1.5343865686183538,535.4454613788494
3664.3748,1.5385015590079332,636.1370601681692
3665.2197,1.5434299107419516,570.6714208001791
3666.063,1.5480715219338026,695.1640460419762
3666.9084,1.55145217970756,533.2843972693336
3667.752,1.5530109717005691,541.8100807298702
3668.5977,1.5527194459441431,540.62814497448
3669.4417,1.5508962210351278,535.4978094529745
3670.286,1.5480101396827182,517.0260703809585
3671.132,1.5444887397240883,534.635341440351
3671.9768,1.5406191399755416,557.5208611955918
3672.8235,1.5364870649603475,574.8731384882151
3673.6685,1.532165162789541,561.5350963932503
3674.5156,1.527817534859731,545.3138858045061
3675.3608,1.5238794189272038,593.422215271292
3676.2063,1.5208839401697978,551.7267339845067
3677.0542,1.5191708037423945,607.9370285032793
3677.9,1.5185456221178053,541.4406993895738
3678.748,1.5182786102168133,579.049259055412
3679.5945,1.5176129262220188,531.7051268362752
3680.4429,1.5162727768923747,564.9067581173545
3681.2896,1.5145139212276992,628.0242941952957
3682.1365,1.5126584213626697,570.6955121675962
3682.9856,1.5107090066969973,529.0068599425047
3683.8328,1.5084686587223601,512.8183232482272
3684.6824,1.5059443049554577,601.5979112927594
3685.53,1.5036048263863604,540.747798196992
3686.38,1.5020094151937444,555.7525417389759
3687.2278,1.5013032964309503,569.33911791459
3688.0762,1.5010528683815139,556.2944984013657
3688.9265,1.5007545837077199,593.5988351813386
3689.7751,1.5004401948325212,662.0428619897784
3690.626,1.5006983020795353,636.214012678962
3691.475,1.5020546001791169,597.5632816208044
3692.3264,1.5043813044270629,552.296703742885
3693.1758,1.506913241202928,574.0917263081604
3694.0254,1.5088727679921918,535.1167559712853
3694.8772,1.5099627516856535,609.9907894884816
3695.7273,1.5103590226877084,492.82066701153974
3696.5793,1.510351786710253,547.062238891271
3697.43,1.5100611199644807,655.3321813955047
3698.2825,1.5094771754049676,548.9983665564116
3699.1333,1.5086280425492944,524.3576976005154
3699.9841,1.507606997849178,561.3810277931984
3700.8374,1.5064527078969854,523.6246088939463
3701.6887,1.5050374731524396,585.6284950934344
3702.5425,1.5030614246059897,568.7100536749435
3703.3943,1.5002781917795225,588.1093788447215
3704.2483,1.4967191275974254,630.980760006109
3705.1003,1.4928761161446094,599.5639485527832
3705.9526,1.489461626007488,625.1068923594536
3706.8074,1.4870237782689257,648.7315662975204
3707.66,1.4856395463491576,553.7021520277473
3708.515,1.4849126658295122,574.8318415549489
3709.3682,1.4843205839830538,616.2396950750549
3710.2234,1.4834873086472689,587.0875005136274
3711.0771,1.4822973053700956,569.0260086774392
3711.9307,1.48081051701733,684.0368360607747
3712.7866,1.4791195100653416,610.3252101490851
3713.6409,1.477295394194988,602.9658913765229
3714.4973,1.4754234879764034,507.4909819243967
3715.3518,1.473710585848524,537.4712870916267
3716.2085,1.4723614025898488,609.3344927494484
3717.0635,1.471439326320712,578.1182352915876
3717.9185,1.4708465996410724,572.5877704466557
3718.776,1.4705489170321473,543.2384491821226
3719.6313,1.4707248462128546,633.1986820951913
3720.489,1.4716139068518506,641.8192201266277
3721.345,1.473160351962029,634.9162399806237
3722.2031,1.4748382203623833,587.2024361522564
3723.0593,1.4758551381734397,529.5384184224754
3723.9158,1.4756640746592558,592.7472321120654
3724.7747,1.4742599050809064,551.3802819501825
3725.6316,1.4721342040013272,622.6551257126646
3726.4905,1.4699292201548102,632.0213142353713
3727.348,1.4681488187075284,603.0610432708793
3728.2073,1.4669331487718567,689.7936130788046
3729.065,1.4660735538229086,622.6925620449545
3729.9229,1.4651887896532518,609.7086881711796
3730.783,1.464032195490495,632.4301526379127
3731.6414,1.4626769199745147,603.7072091678317
3732.5017,1.4614287741623753,573.4390043725489
3733.3604,1.4606302239265172,606.9580439233287
3734.2214,1.4604564252845744,582.6912571645553
3735.0803,1.4608438013246126,560.812075723687
3735.9417,1.4614784082594494,585.6638668898543
3736.8013,1.4618516657738336,606.7731216347856
3737.661,1.4614366301908353,574.0947395610033
3738.5227,1.4599319615896211,583.2900372908899
3739.3828,1.4574677849918982,636.0820121463481
3740.245,1.4545421187926635,650.7730858489263
3741.1055,1.4518278708952,599.2040597782254
3741.9683,1.4498809201029492,552.7911965819021
3742.829,1.449071573492156,721.405533371461
3743.69,1.4495260462275172,568.7075527549829
3744.5532,1.4511410416419817,568.1629020273712
3745.4148,1.4535243626785996,560.4287021372913
3746.2786,1.4560422234130266,615.181801073769
3747.1404,1.4579482963423989,656.648898563982
3748.0044,1.4587361320175958,625.8239861427026
3748.8667,1.4584158452501828,630.416598304112
3749.729,1.4575838848394886,683.8696247341636
3750.5938,1.4570551098456583,634.777527305889
3751.4565,1.4572836329860284,655.833906424716
3752.3215,1.458021519441413,600.4637490583316
3753.1848,1.4585952171123726,603.1861336414096
3754.0503,1.4585918398998312,557.393311321248
3754.9138,1.4582862376488035,618.4298588477089
3755.7776,1.4583857424212698,653.6230326606361
3756.6438,1.4593103877811342,639.5814394547557
3757.508,1.460675951450985,702.4010632677047
3758.3745,1.461529795638106,593.0321120268259
3759.239,1.4611211794300372,645.3521908885625
3760.106,1.4595303615300206,627.3906321008817
3760.971,1.457525750786337,631.8107405129807
3761.8362,1.4557906646734562,624.3553578693463
3762.7036,1.454374960871892,609.421333588225
3763.5693,1.4528454319641504,580.8357562730989
3764.437,1.4507872382330127,616.790521658152
3765.3032,1.44808109124376,638.7263327147009
3766.1714,1.4447121187718313,619.8509942527049
3767.0378,1.4407108760885616,565.4667515238815
3767.9043,1.4363399550182285,537.3145039575375
3768.7732,1.4323618061102954,674.946621176997
3769.6401,1.4299076640876855,595.9593935966831
3770.5095,1.4298542533935044,593.1055143437017
3771.377,1.4323336265736821,699.2590869272498
3772.2466,1.4365912353598984,637.2735421567851
3773.1145,1.4412529188171634,580.71196081154
3773.9824,1.4449303224568848,681.0855592470591
3774.8528,1.4466876162010753,572.2442787989739
3775.721,1.446254502397965,652.0819870801909
3776.5918,1.4439747750300571,715.6933353933217
3777.4604,1.4406015919054593,695.8664816375713
3778.3315,1.4370344958136925,556.3953326607772
3779.201,1.4341793760576866,722.4525466162046
3780.0703,1.4327142668448032,613.0951692092451
3780.942,1.4329818346285499,619.6396780826898
3781.8118,1.4348596332639756,608.9794911218639
3782.6838,1.4377272830223262,575.8914640413825
3783.554,1.4406049601986617,545.9161080065209
3784.4265,1.4425869377570324,619.3298527738505
3785.297,1.443151183852574,597.506874366251
3786.168,1.442240888763912,584.2077592833562
3787.041,1.4400096013708512,587.2771130719887
3787.912,1.436671708846396,547.4133029810644
3788.7856,1.4324963900503296,608.4953490180761
3789.6572,1.427979450813002,631.0403132813408
3790.531,1.423692611325422,629.5006428835366
3791.403,1.4200876845137012,651.6296710567569
3792.2754,1.4171875019560218,642.1709328397903
3793.15,1.4146360813788714,693.4919549799187
3794.0225,1.4119660215137189,579.286833710476
3794.8972,1.4088537076323142,605.3408379257754
3795.7703,1.405350175620652,676.8149213551071
3796.6455,1.4018236051763397,649.3148457058903
3797.519,1.398818041547433,548.7027209322009
3798.3926,1.3966648601109453,689.3026756584311
3799.2686,1.3952955002200225,668.3725217624894
3800.1426,1.394410995489156,637.3390965595847
3801.0188,1.393896777333638,663.2077741534247
3801.8933,1.3940755867802233,722.3831505165473
3802.77,1.395434546474787,700.6750991912287
3803.6448,1.398123830995,693.3128328124682
3804.522,1.4017901420922412,641.6830803341657
3805.3972,1.4057843622095656,614.0449879792022
3806.2727,1.4096029409946473,668.899402503419
3807.1504,1.4130009964909789,657.3564080410196
3808.0261,1.4158638344919836,594.3679557574936
3808.9043,1.41816344493609,619.9134183816766
3809.7805,1.4199614977060533,667.3627114016632
3810.659,1.421525786611216,691.1220157419483
3811.5356,1.4231638274750158,653.8894118491731
3812.4126,1.4249661567060163,614.8828261035404
3813.2917,1.4266529552840737,638.1560658542527
3814.169,1.4277731498397266,656.7684182525994
3815.0483,1.4281533024325368,572.2204800987479
3815.926,1.4281010273748975,625.620531515801
3816.806,1.4281538268103333,590.145467581965
3817.684,1.4285109626082264,608.1478205768622
3818.5623,1.4286917961587742,604.0568264642592
3819.4429,1.4277631155378103,605.6714480543462
3820.3215,1.4249953412913625,618.6009376288215
3821.2024,1.4203786314937394,618.4217674647145
3822.0815,1.4146756016275561,657.4114559563578
3822.963,1.4088303000000089,662.7240624127307
3823.8423,1.403483483930859,694.3188850184065
3824.722,1.398676624078437,605.3839935972965
3825.604,1.3940577009530157,662.134884643516
3826.4841,1.389120825658143,724.6253877193294
3827.3665,1.3832628252547934,663.358342174581
3828.2468,1.3760804587021571,693.1369746332781
3829.1296,1.3675065867058342,699.6083756586519
3830.0105,1.358023487200164,707.5075639946442
3830.8916,1.3482809323415619,717.875865419786
3831.7751,1.3388182131191795,699.2751964177812
3832.6565,1.3300096647414243,691.9069266334801
3833.5403,1.3220389976785507,782.65968766841
3834.4224,1.31529085692273,800.1531655487522
3835.3064,1.3102678680645168,738.5455440889507
3836.1887,1.3076072191059886,741.6158958569139
3837.0713,1.3078547176828947,709.4515388847324
3837.956,1.3113646663122436,766.001315691535
3838.839,1.3180533223120279,759.731362419681
3839.7244,1.3273404849502568,693.5527074555137
3840.6077,1.3381592419364934,701.92213283347
3841.4932,1.3494922358776582,731.2691425943606
3842.377,1.3605278660535929,728.4760471394947
3843.261,1.3708891354968082,705.3231546785345
3844.1472,1.3803334393740598,709.6585483113702
3845.0315,1.388484284795238,729.9693046059971
3845.9182,1.3950713283868375,494.8486087013587
3846.803,1.4001275728344738,679.3838620908185
3847.69,1.4043211554184434,703.1377718097991
3848.5752,1.4085875059237778,680.3642208675358
3849.4604,1.4136649997895863,683.9835585893918
3850.3481,1.4197457468116015,705.7078282423801
3851.234,1.4264907827490199,620.5149206702993
3852.122,1.4334388720836426,593.2518668936169
3853.0083,1.4401329011425767,636.5170889936143
3853.8967,1.446347649488823,633.3509550252058
3854.7832,1.451948766873345,641.3655447711967
3855.6702,1.4569328842093638,607.1439788650706
3856.559,1.4612623661264739,605.8377206405817
3857.4463,1.4647221571248321,581.1146186980264
3858.336,1.4669312286841178,588.8993590810736
3859.2234,1.4674410770244135,606.4980698286962
3860.1135,1.466073712966935,575.201396952959
3861.0015,1.463118211514666,561.3150671275478
3861.8896,1.459230719507629,578.6061859757026
3862.7803,1.4551385099197067,601.3407545649961
3863.6687,1.4514415938368528,605.1708706497949
3864.5598,1.448482526171824,620.0181502628964
3865.4487,1.4463953079339251,606.3185775555703
3866.34,1.444905114904151,591.1501019972659
3867.2297,1.4432814839792776,681.3915220942455
3868.1213,1.440520724138295,517.9330873608143
3869.0112,1.4358719120700916,588.6721557673808
3869.9014,1.4291746867021096,661.3389364575418
3870.7937,1.4208399178901572,608.0060257962307
3871.684,1.4116221408981333,643.4701698532616
3872.577,1.4021502651218316,642.8293522973983
3873.4678,1.3928585616889118,653.5144798350856
3874.361,1.3836770875334061,676.1712938752175
3875.2524,1.3742947118012954,634.7817808596349
3876.1438,1.364316355444488,651.1046059896357
3877.0376,1.3536456561160197,761.2326850110649
3877.9297,1.3426078507582666,814.167208019149
3878.8237,1.331457650125461,753.3558742231519
3879.716,1.320186960449399,953.2029893621225
3880.6108,1.3082616189275111,737.9979089679782
3881.5037,1.295131458184324,737.3884688720934
3882.3965,1.280450754504906,798.1762608352242
3883.2917,1.2643646008066236,844.3958025598168
3884.185,1.2475824725225486,842.1596593002864
3885.0808,1.2308343969128008,859.7339510162312
3885.9746,1.2149297427231813,921.112610040286
3886.8706,1.2003334033692672,960.3609453694291
3887.765,1.1875518899162973,873.0515172803019
3888.6592,1.1770814810375492,887.8189828606817
3889.556,1.1695909197116556,893.3985659208889
3890.4507,1.1658649187086338,984.9105915344273
3891.348,1.1665041006539025,962.2898403396223
3892.243,1.1717982796804167,925.6104931352174
3893.1406,1.181584693021257,983.3307465902485
3894.0361,1.1950565436693252,815.7345168682821
3894.932,1.2110488136439723,934.6385104671581
3895.83,1.2283248752778537,815.1140497760348
3896.7263,1.2458028725334611,831.545446202341
3897.625,1.2630599079215792,734.6042113011283
3898.5215,1.2799284468542116,781.5607079793328
3899.4207,1.2966159929212038,754.6350181385931
3900.3176,1.3131432292568455,750.1657986617508
3901.2148,1.329619524667727,688.288772122274
3902.1145,1.3461123345592165,637.4340009957295
3903.0122,1.3624548367157598,776.9246927659073
3903.912,1.378432549497843,688.7826381100172
3904.8103,1.3935830065309596,641.7480136681952
3905.7107,1.40774959505439,650.8141152448977
3906.6094,1.4209796559493348,626.148749406443
3907.508,1.4335683929131056,586.4570088182261
3908.409,1.4456223141771194,599.4128852173218
3909.308,1.4568336276775298,564.8613244363872
3910.2097,1.4669067884595504,650.1310852113603
3911.1091,1.4757532966400912,504.6343248486246
3912.011,1.483837993903454,580.0921882248746
3912.9111,1.4917366131741987,626.9622451823733
3913.8113,1.4998648134886707,533.0253968856118
3914.7136,1.508241724025609,562.1700568378667
3915.6143,1.516557960536992,503.79172198172745
3916.517,1.5245537051120692,522.1527453268742
3917.4182,1.5320077660313947,528.8758246358043
3918.3215,1.5388193302712776,544.8178705558286
3919.223,1.5447723898545849,489.4611798127808
3920.1245,1.5496761105602013,576.8689919987163
3921.0286,1.5534901001252623,517.4393646529196
3921.9307,1.5564409173936165,515.071540843909
3922.835,1.5589727512921026,539.1505964089637
3923.7373,1.5614139060210614,518.919009076059
3924.642,1.5638428258058037,597.5042640574989
3925.5452,1.5660547342132374,552.2251430155239
3926.448,1.5677030279550297,523.6304624763285
3927.3535,1.568389189491223,549.6964861943275
3928.257,1.56785078061569,530.5310067635141
3929.1628,1.5662567710110145,502.154144217184
3930.0667,1.5643265867690117,535.2841854715028
3930.9731,1.562944822690148,536.36517502702
3931.8774,1.5624966676963818,572.2809813686664
3932.782,1.562422395786198,507.3962780036292
3933.6887,1.5615456124336036,519.4281027361924
3934.5938,1.558871511606629,557.285804437447
3935.501,1.5541249068862666,504.8070883821129
3936.4062,1.5477105769372648,536.6585897843136
3937.3142,1.5401590540532546,523.2307003083602
3938.22,1.5319457550540054,534.8558093305227
