wavl,flux,ivar
3566.9744,1.0450497943082233,510.63674064974145
3567.795,1.0405986519071637,495.566574003669
3568.6177,1.0369243849003604,398.2754736540667
3569.4385,1.0338264926873582,447.767139105966
3570.2617,1.0304822724383536,362.34743170290204
3571.083,1.0262150519228785,408.0660367894868
3571.9065,1.0209438283436139,412.48544610680676
3572.7283,1.0152460974570248,554.3089785354842
3573.55,1.0098508421438914,527.5752084774763
3574.374,1.0053908664745743,588.3806183080081
3575.1963,1.002560268922096,593.8312723518642
3576.0208,1.0021594437945522,377.3227472260253
3576.8435,1.0046916961389671,694.0500877590287
3577.6682,1.0095770819952914,344.6429038110107
3578.4915,1.0149679292772513,370.6386237290478
3579.3145,1.0188164837088607,392.25063535319697
3580.14,1.0202495560767924,558.3192728959747
3580.9636,1.0200480349005097,522.8451931304828
3581.7893,1.0198218682550408,409.35041857214003
3582.6133,1.0206395551291647,591.5699536257451
3583.4395,1.0222782907039103,487.5573049652176
3584.264,1.0234777700881992,524.8893667656944
3585.0884,1.0229342669648191,425.1011381679649
3585.915,1.0202468035707966,577.1218292854537
3586.74,1.0162342436572647,545.0680376087408
3587.5671,1.0122597420786936,496.67806353334845
3588.3923,1.0092536448050118,721.4776954222643
3589.22,1.0070775546293866,400.3201874364179
3590.0457,1.0049712055593587,531.0806695219608
3590.8716,1.002446196531634,674.836201947913
3591.6995,0.9999067429139445,729.9473966061087
3592.526,0.9984047805029326,532.1637648121615
3593.3542,0.9987516977434503,632.7254139484344
3594.181,1.0007672679628798,488.8111437770392
3595.0098,1.0030954134166354,787.8730651367296
3595.8367,1.0036973323685179,539.011169172235
3596.6638,1.0009741035883188,397.1720439902325
3597.4934,0.9948316949080591,883.461982746536
3598.3208,0.9870514613929914,416.7346162843283
3599.1506,0.9801597958591832,457.78745865668634
3599.9788,0.975964473367077,509.4894289182613
3600.8088,0.9745538140015211,562.605431178069
3601.6372,0.9748545242343412,536.4036857465778
3602.4678,0.9757759316284389,590.7681908071073
3603.2964,0.9770133885974278,742.5090939164296
3604.1252,0.9790153149540153,697.028941359144
3604.9565,0.9823449473264247,514.4745598183846
3605.786,0.9869314605262373,613.7016670698254
3606.6172,0.9918763059970493,619.8302824937002
3607.447,0.9957830598298841,490.6168721904299
3608.2788,0.9975225715172846,662.0221397348697
3609.109,0.9965922073536805,545.2444146428929
3609.9392,0.9931832474408773,492.4319154518343
3610.7717,0.9881292528918173,566.6939856392343
3611.6023,0.9829714041202064,410.5213519911691
3612.435,0.979543449235306,501.891883953251
3613.266,0.9791982337388235,641.6888716674752
3614.0994,0.9818725731443569,518.0260953373769
3614.9307,0.9860221730740765,550.6308533194963
3615.7625,0.9896504456187619,380.0198474473708
3616.5962,0.9915875834965007,472.95149160485175
3617.4282,0.9920324100642456,585.8742994329377
3618.2625,0.9919984805912045,436.07434140524225
3619.0947,0.9922262140658633,492.17694220993315
3619.9292,0.9925780287794447,615.2853529666921
3620.762,0.9923017171972771,427.35186789822427
3621.595,0.9907679811732584,463.6337486713099
3622.4302,0.9878658925325321,484.2999345670346
3623.2634,0.983801713123735,498.7430588712144
3624.0989,0.9786595469194085,446.664813530688
3624.9326,0.9726282741279219,741.2175846538057
3625.7686,0.9665155531165291,421.97847133767687
3626.6028,0.9620908276006781,524.0666903814061
3627.437,0.9612530479760829,493.09730609781315
3628.2734,0.964777880255103,963.9640005783247
3629.1082,0.9713729621692562,493.0720041902933
3629.945,0.9780113643232589,441.47780319667015
3630.78,0.9811754969308292,450.5569786102109
3631.6174,0.9786345860655514,435.02254548919353
3632.453,0.9705570195105542,792.399563083816
3633.2883,0.9594619329480472,499.629949105099
3634.1262,0.9489413591664794,458.0835947269413
3634.9622,0.942038277989311,1162.3452833707888
3635.8005,0.9398400535584676,487.91201929781374
3636.637,0.9414761905474993,395.1841803314392
3637.4756,0.9448946391620388,547.3361527391224
3638.3123,0.948107770405886,573.7405891228098
3639.1492,0.9502379678476236,611.0477343567312
3639.9885,0.9516497735030504,857.8424701569598
3640.826,0.9531969715802924,540.5972080852525
3641.6653,0.955233112920546,618.0242544463636
3642.5032,0.9571908076763763,487.22304549343716
3643.343,0.958106787556089,548.8297420984339
3644.1812,0.9574565105322644,422.18199029736087
3645.0195,0.9556719467476164,462.09883919218936
3645.86,0.9538829413746336,553.3816155980331
3646.699,0.9530688409530299,600.9839905877179
3647.5398,0.9532063453146046,639.0666880570863
3648.379,0.9533081622945065,547.5866457834328
3649.2202,0.9523713536641755,600.0761034695288
3650.0596,0.950344024708557,518.8473300615079
3650.8994,0.9480909085632347,527.9834607562746
3651.7412,0.9464762010905761,506.9598253087075
3652.5813,0.945534689944356,518.2591328330064
3653.4236,0.9444771314951295,511.24514476409973
3654.2642,0.9424501651973065,720.7836077709429
3655.1067,0.9391930125897673,731.4018184607581
3655.9475,0.9351607285332558,1054.6191628379815
3656.7886,0.931029572491017,496.2638379722363
3657.6318,0.9271970457037954,1012.2524823222554
3658.4734,0.923619739807106,459.0111976519455
3659.317,0.9199567079479807,660.3994825862017
3660.1587,0.9159903326957769,712.0529948148652
3661.003,0.91176764205985,537.0919594292375
3661.845,0.9076465168890703,612.105857892134
3662.6875,0.9040665770914602,991.8754543554936
3663.532,0.9014975647483983,747.7452885550061
3664.3748,0.90041386684758,519.2373827252065
3665.2197,0.9011314762833321,775.5143379875179
3666.063,0.9034584111152266,709.442907711034
3666.9084,0.9064074820990351,601.5763725133997
3667.752,0.9084658255177788,792.7960699297605
3668.5977,0.9085629393207216,592.7147798756338
3669.4417,0.9068365497001024,717.6272729295544
3670.286,0.9045753902927864,743.9064517735131
3671.132,0.9033717330160346,642.2354995222122
3671.9768,0.9042260348906037,552.6896626150826
3672.8235,0.9071584823600721,591.9789204553264
3673.6685,0.9114048774168465,641.6713095522547
3674.5156,0.9159360401657257,740.3418379546433
3675.3608,0.919745732270252,866.827873102046
3676.2063,0.9220546871065528,432.04374773958307
3677.0542,0.92232973213878,395.6535915387595
3677.9,0.9204638985958576,709.5643583823869
3678.748,0.9169434170525124,710.5427238275341
3679.5945,0.9128453704308486,544.9049849453268
3680.4429,0.9094379604082644,626.6151082775742
3681.2896,0.9076800065719652,530.3256716882088
3682.1365,0.9076396298814035,797.3758340878064
3682.9856,0.908325941927856,597.3825046555506
3683.8328,0.9080310794299368,503.2609975329692
3684.6824,0.9052643312298332,437.18749343539406
3685.53,0.8997980047661809,733.0679261739239
3686.38,0.8929182109669819,828.8333367203043
3687.2278,0.886715033897068,1031.3002076843804
3688.0762,0.8826891284020772,731.7919180230592
3688.9265,0.881166459078048,694.8205685076499
3689.7751,0.8816495395525485,584.5726086698508
3690.626,0.8835642089634252,729.6920303210096
3691.475,0.8865624743260967,552.8060530146183
3692.3264,0.8903040934965819,520.1825155933519
3693.1758,0.894147453589041,929.0749372056814
3694.0254,0.8973908446613369,598.5794440718387
3694.8772,0.8997052794368796,507.8652981977731
3695.7273,0.9013587357637397,757.4781342573323
3696.5793,0.9029605787504636,699.1653010923333
3697.43,0.9048550024947047,436.23695843337657
3698.2825,0.9067991139527299,561.7886527850987
3699.1333,0.9080503800459225,571.7456040845839
3699.9841,0.9077985145237536,598.0532569718694
3700.8374,0.9055141170145293,710.4613394966486
3701.6887,0.9012207178333114,581.7492684685985
3702.5425,0.8955519878190646,557.6289161703874
3703.3943,0.8897060921317864,775.2392703289513
3704.2483,0.8849044413753302,662.0044115019687
3705.1003,0.8819900105759679,823.5775175912436
3705.9526,0.8811427633104247,653.8218892533645
3706.8074,0.8820388100357961,652.3170665948606
3707.66,0.8839599232664022,639.6505419671269
3708.515,0.8859582105381133,844.3446943100481
3709.3682,0.8871523338182568,507.07421640301516
3710.2234,0.887169124720252,657.5781109139892
3711.0771,0.8861976548979577,490.6210291323597
3711.9307,0.884572472275261,572.2473979332287
3712.7866,0.8822889946535966,674.7384587511551
3713.6409,0.8790948979326265,434.08903289408
3714.4973,0.8750536087104592,651.5129669715802
3715.3518,0.8710935274241521,882.613785100849
3716.2085,0.868680876935955,978.2444762561694
3717.0635,0.8689370184693556,1181.5301504538556
3717.9185,0.8716990320227322,763.252408261896
3718.776,0.8754911106098537,601.3229277943597
3719.6313,0.8783496071992061,437.43305341454067
3720.489,0.8790589779827789,706.5847093725663
3721.345,0.8776992727339255,584.385921506818
3722.2031,0.8753537193571289,801.6845346469859
3723.0593,0.8733265595350739,504.467454855484
3723.9158,0.8724337835948394,713.2651050781483
3724.7747,0.8727653809330187,801.5754241639451
3725.6316,0.8737969774381524,710.3438608554029
3726.4905,0.8748062410623093,570.2830523708714
3727.348,0.8753488230261153,790.5480030302622
3728.2073,0.8754753452659567,774.8664717793063
3729.065,0.8754247850715324,770.6927243142197
3729.9229,0.875127006645295,530.5549041074753
3730.783,0.8740944420648138,668.3203504591698
3731.6414,0.8719042961020858,539.4330942616936
3732.5017,0.8687191820636947,781.3244606477247
3733.3604,0.865352483108919,603.3195023980902
3734.2214,0.8627227762115655,733.6365330152656
3735.0803,0.8613188096419154,857.7028518779705
3735.9417,0.8608799946757725,763.9269828411433
3736.8013,0.8606405517994217,616.6686213298508
3737.661,0.8598480360693975,739.9820089144852
3738.5227,0.8581661200973407,564.8695191553908
3739.3828,0.8556174883288311,686.978670061553
3740.245,0.8522337202646741,674.1769349026891
3741.1055,0.8480767622857122,589.1631047619358
3741.9683,0.8434824219424574,804.3776093325322
3742.829,0.8392357543851929,746.7151935354526
3743.69,0.8360914072702551,585.161269532901
3744.5532,0.8343497912388421,1061.3336849150692
3745.4148,0.8338193410022837,759.4089260236053
3746.2786,0.8340773277276309,622.1321460884375
3747.1404,0.834713330527486,919.4924472316557
3748.0044,0.8354052507264178,651.959010701742
3748.8667,0.8360056120362269,777.2191439504484
3749.729,0.8366804655242253,895.5069541417943
3750.5938,0.8378548082461964,838.9260128068228
3751.4565,0.8398608229939053,686.4237107302528
3752.3215,0.8425585755431351,764.9043778374628
3753.1848,0.8452052467255544,528.404790936901
3754.0503,0.8468542630902677,1129.1121479913536
3754.9138,0.8468726414359641,647.587366702968
3755.7776,0.8453158263454047,1012.6865421594194
3756.6438,0.8428658278515289,740.2291197739204
3757.508,0.8405925075738515,673.415057909645
3758.3745,0.8395657788499621,823.1852471944031
3759.239,0.8404916624222725,665.7482292106178
3760.106,0.8433292861807515,764.9334292533022
3760.971,0.8471704760258648,703.209123680379
3761.8362,0.8506230525897138,772.5498987433084
3762.7036,0.8523791114168665,527.8042929233549
3763.5693,0.8516611767516339,662.8120505345687
3764.437,0.8483804625257566,612.1075846431283
3765.3032,0.8430678486638109,675.5041501692468
3766.1714,0.8365734561053509,781.2206083099314
3767.0378,0.8296568351157027,1014.8245999551515
3767.9043,0.822340103101608,776.0574743048445
3768.7732,0.8136867385224592,725.0088604738066
3769.6401,0.8022226814529991,779.5626703844782
3770.5095,0.7867812505149626,708.817397204367
3771.377,0.7683209327798275,626.6903467531187
3772.2466,0.7508492112850712,626.4212721686667
3773.1145,0.7408581612035852,679.5144419210899
3773.9824,0.743457213076244,954.7683710599862
3774.8528,0.7587368096882499,526.5251459544127
3775.721,0.7810827923804085,879.4447804174515
3776.5918,0.8031106381902404,860.1916806228853
3777.4604,0.8196091657716468,664.8006865905362
3778.3315,0.8296064833112597,923.2286023975742
3779.201,0.8347527353257712,851.1123162450128
3780.0703,0.8374220275940951,755.3157940618571
3780.942,0.8392670935016772,936.6293025087631
3781.8118,0.8408906475585253,806.8485066334742
3782.6838,0.8421473587496816,867.9184638274618
3783.554,0.8426393212735994,848.8591406952718
3784.4265,0.8422087064668533,645.2554621819208
3785.297,0.8411075591688779,634.9695172268397
3786.168,0.8398142937883386,445.388051312963
3787.041,0.8386639849254117,607.9716421050599
3787.912,0.8375485941932458,908.9755074566993
3788.7856,0.8358470336584468,817.6888886934915
3789.6572,0.8327430895586072,680.4266246779722
3790.531,0.8276656259405357,744.3784430809523
3791.403,0.8206732568283803,774.566846928838
3792.2754,0.812300268528,656.4388598884237
3793.15,0.8032223119874886,712.3152251782057
3794.0225,0.7940767869712764,726.9310882286134
3794.8972,0.7853470579331115,768.6893073032551
3795.7703,0.777678385919027,696.6273372244605
3796.6455,0.7717119573511312,730.1113337317043
3797.519,0.7680081069504168,950.031824511707
3798.3926,0.7667720406721474,866.3142873900948
3799.2686,0.7679454299527321,894.1655388465844
3800.1426,0.7712974839117493,869.5968484176942
3801.0188,0.7764689517416584,684.548677413158
3801.8933,0.782811223223741,698.042171133666
3802.77,0.7894595260779954,664.2399820702578
3803.6448,0.7954691295450023,564.2125936875677
3804.522,0.8003038355089618,950.4948600077051
3805.3972,0.8039333499003222,594.4588991802945
3806.2727,0.8068334183426676,896.5635791502261
3807.1504,0.8096889302509481,823.50513022143
3808.0261,0.8131813199842426,897.4222792965697
3808.9043,0.8179060807794841,623.0226019927122
3809.7805,0.8240705761996475,763.551426788906
3810.659,0.8312822837412335,784.4963533867578
3811.5356,0.8384242774040539,686.6793655634917
3812.4126,0.8443329201560308,768.9925001832822
3813.2917,0.8485061435515447,799.5077254978376
3814.169,0.8512493015445238,717.5897578670232
3815.0483,0.8530708203047384,686.4117032711108
3815.926,0.8538932658619174,1019.2276478391727
3816.806,0.8531657568437014,698.3304316016059
3817.684,0.8506621294098254,606.378723406543
3818.5623,0.8470676938153924,588.1012450941906
3819.4429,0.8436483325747778,688.952683950968
3820.3215,0.8413294777930259,876.0151631307758
3821.2024,0.8398858760215605,750.5442072409193
3822.0815,0.8380255837543099,626.4982478977514
3822.963,0.8341406857747762,625.7219197577476
3823.8423,0.8273604589207796,609.3991146150769
3824.722,0.8180214393862547,910.1791616856268
3825.604,0.8073605762188185,795.2753335735447
3826.4841,0.7967538007053155,934.6656249098987
3827.3665,0.7867821091691266,614.9660525662892
3828.2468,0.7772667993801788,983.8673015753535
3829.1296,0.7674372413003413,908.6935081588351
3830.0105,0.7566217784805712,998.6942389131576
3830.8916,0.7444292594547234,903.0182079329026
3831.7751,0.7310068040967155,1061.065865699688
3832.6565,0.7172707855365111,978.9353980400518
3833.5403,0.7046122214073801,876.1859960055177
3834.4224,0.6948235411246362,1404.161590382903
3835.3064,0.6893367832592553,1032.512992625354
3836.1887,0.6889444464534971,1396.7647180812635
3837.0713,0.6935436015006928,912.9952086741152
3837.956,0.702287700311261,914.4320583338941
3838.839,0.7137067292993424,935.839001495656
3839.7244,0.7262201888804353,743.8329200351624
3840.6077,0.738428481956501,832.4205323309842
3841.4932,0.74973556632751,786.3196608983111
3842.377,0.7601549724034172,772.8221584274157
3843.261,0.7700343948602533,898.322702042622
3844.1472,0.7793827352057741,791.9855742849736
3845.0315,0.7876518130255642,771.600621300977
3845.9182,0.7943187516854063,594.7543795755096
3846.803,0.7993198868335568,820.8027207399888
3847.69,0.8033915064035766,573.674267313311
3848.5752,0.8076936709233266,739.1761363848319
3849.4604,0.8133564552926335,715.3234938871134
3850.3481,0.8209415892886682,1038.1317008157398
3851.234,0.8300322489977311,640.2711545336589
3852.122,0.8394557975172454,733.795624306476
3853.0083,0.8476695171920474,733.6470703736911
3853.8967,0.8536433496137136,675.8706753115644
3854.7832,0.8571365338343426,695.8535476989243
3855.6702,0.8587268998118843,727.9762677761003
3856.559,0.8592806849167188,598.3157056820758
3857.4463,0.8593729035223899,676.5964759870534
3858.336,0.8588949765394964,834.0700766820571
3859.2234,0.8571889735798924,571.1680413387718
3860.1135,0.8537019140941712,944.6014760804075
3861.0015,0.8487274019789576,748.7666095603757
3861.8896,0.8434303914585594,723.6720266530554
3862.7803,0.8392558144360964,949.274693463592
3863.6687,0.8371941423359981,629.2384069164042
3864.5598,0.8373500599734666,684.6400490037709
3865.4487,0.8390635356971843,771.835973756729
3866.34,0.8410768897530326,766.3017923717816
3867.2297,0.8413663135460302,565.884139204579
3868.1213,0.8363063885064768,710.3524223134164
3869.0112,0.8190363646528124,811.7322684204725
3869.9014,0.7780665664710139,635.4402769944093
3870.7937,0.6993024508674173,771.1709051692117
3871.684,0.57626017830108,576.6121684853333
3872.577,0.4227448357147924,706.5903508340416
3873.4678,0.2811466946663486,700.2475471667226
3874.361,0.20390061480411667,684.9561877826455
3875.2524,0.2226625573856831,724.1158325130704
3876.1438,0.3239297455591043,809.1863024066427
3877.0376,0.4600887513655611,1100.3370675375957
3877.9297,0.5802677885141985,875.8990386834398
3878.8237,0.6586956391286826,748.9738875317571
3879.716,0.6954570328622492,851.4808612839578
3880.6108,0.7042762795183504,932.5788455606705
3881.5037,0.6985755879231254,1115.8389697605223
3882.3965,0.6866004815983043,932.2737634192171
3883.2917,0.6719992879319289,1438.8552580900762
3884.185,0.6562425329952356,1185.7353966874136
3885.0808,0.6398489943269718,1452.3152935085548
3885.9746,0.6233445712764722,1038.05702650728
3886.8706,0.6072637056616355,1218.6859605017517
3887.765,0.5926769189036555,1961.0008316116177
3888.6592,0.5809940886899297,1439.063268642516
3889.556,0.5737802895790491,1667.4009884183438
3890.4507,0.5722070998211425,1375.8232835995452
3891.348,0.5764998325655261,1167.0071123922176
3892.243,0.5859698417932689,1476.1356077879968
3893.1406,0.5994447196818025,966.6750990268986
3894.0361,0.6153888661380436,1162.0278833263694
3894.932,0.6323102891002707,966.5276705843811
3895.83,0.6488817729297709,1154.5096027186485
3896.7263,0.6641689314479878,1103.2558688021265
3897.625,0.6781645674890429,1358.8160657559617
3898.5215,0.6913521070103624,1392.097230023052
3899.4207,0.7045054891504948,1128.6242103048717
3900.3176,0.7178828278688358,1019.2017362972166
3901.2148,0.7312740071876818,1279.243470795583
3902.1145,0.7440887247603962,777.8617980974651
3903.0122,0.7557015000103546,1011.2426500166539
3903.912,0.7660125002297038,832.6224668622751
3904.8103,0.775301298696593,888.0795231597428
3905.7107,0.7842929820878065,708.6401651020042
3906.6094,0.7938563181908314,659.1106075565368
3907.508,0.8049095757481384,1029.8973485460829
3908.409,0.8178755017309981,726.7919268202203
3909.308,0.832009184379339,759.9033456048162
3910.2097,0.8456018672747299,711.9944813142666
3911.1091,0.8565985657967937,467.33780812831935
3912.011,0.8639980545557628,727.005438585667
3912.9111,0.868158813537446,854.4897953703039
3913.8113,0.8705381050510012,679.7781652319237
3914.7136,0.8727928352066909,754.5036677380895
3915.6143,0.8761243197225385,724.1643655985766
3916.517,0.8810298793187328,923.0787805644236
3917.4182,0.8872136524678301,687.5459920809899
3918.3215,0.893839083393946,701.2622940979576
3919.223,0.8998114422121382,725.6098889932126
3920.1245,0.9043533230734426,562.752512900333
3921.0286,0.9072314680222677,542.681354277048
3921.9307,0.9086919978463837,675.7960067084703
3922.835,0.90921908347566,562.2502607128138
3923.7373,0.9092222478238147,618.7974435764102
3924.642,0.9089158780381215,738.4881228670372
3925.5452,0.9083701749423923,582.6578516742196
3926.448,0.9076941173427725,521.4153776074796
3927.3535,0.9071516177399782,648.9894370786343
3928.257,0.907000489059736,495.82552964744775
3929.1628,0.9071078933227263,574.2258122614701
3930.0667,0.9067996096033285,596.955716065388
3930.9731,0.9052492686670465,604.9343670548378
3931.8774,0.9021810174851492,582.8704241562175
3932.782,0.8981445650614321,672.5914608561403
3933.6887,0.8940951550728721,736.8631011821744
3934.5938,0.890695646553614,594.2186248407845
3935.501,0.887909563987346,622.2718971879212
3936.4062,0.8853275983016766,646.8821505262308
