wavl,flux,ivar
3566.9744,0.41861684535286064,3778.490041443497
3567.795,0.41386023509641,1462.1836530208602
3568.6177,0.4098349179699404,1055.5914821844985
3569.4385,0.40718105295832147,1757.2295474283737
3570.2617,0.4060516902989019,2173.958159833404
3571.083,0.4061008844084529,2243.2563553801333
3571.9065,0.4066572491300142,2140.0628556298716
3572.7283,0.4071565361500911,1633.9740511445007
3573.55,0.40753927891520136,1799.8327877679494
3574.374,0.4083209815749383,1750.2707145360882
3575.1963,0.41024882280560665,2085.59924186584
3576.0208,0.41379066995560115,1761.1768764602314
3576.8435,0.4187575938071576,1532.4681212655462
3577.6682,0.424419486611116,2231.376887874904
3578.4915,0.4296723448563693,2583.559781221641
3579.3145,0.4332944727299822,1483.1774082398795
3580.14,0.4341073321029943,1783.4345521960029
3580.9636,0.43145550944428834,1263.375386187274
3581.7893,0.42577143354454833,3513.8497564171284
3582.6133,0.4186451940328691,1279.4962402444908
3583.4395,0.4120412105796135,993.4668775350867
3584.264,0.4075413735622044,2032.1094848417015
3585.0884,0.4057930923668693,3677.9048485306603
3585.915,0.406596966833883,1768.642400919279
3586.74,0.4090957167890055,1426.3867217401485
3587.5671,0.4121055384370764,1870.0556177508724
3588.3923,0.4145029828957988,1425.7763774471646
3589.22,0.41568806364169,2961.524038429081
3590.0457,0.4157091397493987,1471.1609035993317
3590.8716,0.41505865732087366,1679.179071025594
3591.6995,0.41415786144109357,1176.9749695468222
3592.526,0.4129963617230858,2364.148509681164
3593.3542,0.4111854914686811,1943.7612580316509
3594.181,0.40845341038734206,2067.992769436724
3595.0098,0.4051141848967174,1185.9753834155701
3595.8367,0.40219748810329053,2366.84122555322
3596.6638,0.40083511088909346,1376.4397726771986
3597.4934,0.401442291833058,1334.0945001190898
3598.3208,0.4032697639813429,1608.8484140218357
3599.1506,0.4048465228096507,4385.430357918142
3599.9788,0.40484687651498824,2787.2908780121907
3600.8088,0.40276052970650267,1682.4381424003668
3601.6372,0.3990349467825611,3589.546898188829
3602.4678,0.39484985826858543,3441.0869561753216
3603.2964,0.3917772036940471,1797.6589860156598
3604.1252,0.3910820432257895,2169.7216655630305
3604.9565,0.39310112372939177,1601.660133788654
3605.786,0.39693310113621166,1622.4542589710704
3606.6172,0.40094229311876783,3067.222917880663
3607.447,0.4036484990357262,2713.669815436693
3608.2788,0.4045122312321894,856.8323809372956
3609.109,0.403892434322787,1577.333383960265
3609.9392,0.40248220733147966,1386.1907633622907
3610.7717,0.40077314896432054,3724.4386404510024
3611.6023,0.39904216437125833,1410.3290686177063
3612.435,0.3975835576678931,1566.282596922029
3613.266,0.3968240218630208,1940.1208232434053
3614.0994,0.3970513288584558,1386.0880185505039
3614.9307,0.3981280461531402,2554.5651015988724
3615.7625,0.3994702769272622,1700.8815284049147
3616.5962,0.400350812815182,1416.1763794551662
3617.4282,0.40033072785369633,2268.8400161576797
3618.2625,0.39954643689840424,1861.7509764280708
3619.0947,0.3985968184139248,3427.604276002128
3619.9292,0.39810587080611826,1432.4902047308617
3620.762,0.3983777574615946,1733.8545869762575
3621.595,0.39937774751620114,1258.519782487848
3622.4302,0.40092188433541087,3471.8495127472293
3623.2634,0.4027204609669353,1548.5216745152447
3624.0989,0.4043534755825498,1346.5127755907895
3624.9326,0.4052895889756864,2246.9560238003132
3625.7686,0.4050921052143939,2983.9874996164817
3626.6028,0.4035530861668706,1246.4383678810038
3627.437,0.40075237423263615,14717.939937519306
3628.2734,0.3970418977014539,2518.4175718302367
3629.1082,0.3929497149875434,1715.7686816212774
3629.945,0.38883349955604457,1816.0338014515373
3630.78,0.3848086993513257,2475.6940338660875
3631.6174,0.38091173837589876,3087.2707916286226
3632.453,0.3775066786714774,2482.9459269231393
3633.2883,0.37505962896246664,4697.354555648928
3634.1262,0.3735999504878081,2696.4438301507803
3634.9622,0.3724495486877154,1823.507415713273
3635.8005,0.3706753724190564,2015.5658066802494
3636.637,0.3679217606418157,1532.0712304917217
3637.4756,0.36468404785262104,2445.540178064884
3638.3123,0.361944110005147,2147.7448028823023
3639.1492,0.3604475403224535,1424.912356683525
3639.9885,0.36038775234603965,2644.259970827837
3640.826,0.36147811145082565,2645.5350485094013
3641.6653,0.36321941785331135,1758.2192710567967
3642.5032,0.3650861637634746,1819.4843253806805
3643.343,0.3666635071449992,2573.1920133540098
3644.1812,0.3677211047191048,1836.7433168598843
3645.0195,0.3683135262658689,2403.14510828913
3645.86,0.3687308984722371,1783.5737577335417
3646.699,0.3693126983519361,2126.4337909192486
3647.5398,0.3702118793964968,2180.870638547155
3648.379,0.3712738163088132,1986.9518408302242
3649.2202,0.37219052627190896,1289.8159659138944
3650.0596,0.37275908888498255,1755.9404434071134
3650.8994,0.37303606802255085,5244.516568644968
3651.7412,0.373182494508088,3114.0902993046016
3652.5813,0.37320932177636335,2338.2320254581155
3653.4236,0.37291672515919655,1894.5633521178886
3654.2642,0.3720942343507224,3258.4236600144513
3655.1067,0.3707069376409641,2364.2213738289793
3655.9475,0.36886963274751966,2233.2772909711534
3656.7886,0.3666897746759488,1420.972189028767
3657.6318,0.3643251535366478,2670.7338268108288
3658.4734,0.3622052958613639,2315.191148256869
3659.317,0.3609738684622549,4524.56089904866
3660.1587,0.3611020258632494,1526.7519107760984
3661.003,0.3624015706289984,1689.8177085757682
3661.845,0.36399770358406036,1878.3536456392446
3662.6875,0.3648586648373794,2262.6620562754
3663.532,0.3643932040623226,3166.168965254351
3664.3748,0.36266725353037826,3033.490366787745
3665.2197,0.36008417546441646,3998.0999886726577
3666.063,0.35700469543827235,2565.7774018293485
3666.9084,0.35363349719542836,3483.994049362223
3667.752,0.35031406258965325,4453.041802095805
3668.5977,0.347594748557217,4050.9748807406495
3669.4417,0.3460484865808851,2390.0494485075683
3670.286,0.3458259555942285,2481.036219181117
3671.132,0.3465321594335009,2593.236778994658
3671.9768,0.3474893932719474,2239.786464257489
3672.8235,0.3482584409671117,2091.599307588679
3673.6685,0.34894526312884844,2981.5692986864133
3674.5156,0.35004238338124766,2119.405481327508
3675.3608,0.35187172027162544,1751.5215277316488
3676.2063,0.35416939744350434,2325.5769593979867
3677.0542,0.3561296123909167,2318.6276351480456
3677.9,0.3568536881341715,1854.369424664532
3678.748,0.35589679861099077,1976.0147459723864
3679.5945,0.35349537259667146,2731.722184220881
3680.4429,0.35041694511057403,2604.9468231776013
3681.2896,0.3475900390437277,3159.896135576072
3682.1365,0.345640695713874,2557.5792779216204
3682.9856,0.3447026776550221,3198.822254629084
3683.8328,0.3444571642487857,3022.961602760669
3684.6824,0.3443717292981551,4177.231675111162
3685.53,0.34408620066729556,2421.804837023142
3686.38,0.3437055247819275,1911.0363445957944
3687.2278,0.34375477198349885,4573.271218278086
3688.0762,0.34477422303130145,3039.4303328970136
3688.9265,0.34694523344692246,2271.0417492661973
3689.7751,0.3499968559474508,3558.7972775075796
3690.626,0.35338130769082354,1764.2992007225682
3691.475,0.3563378966645463,1578.2139954461118
3692.3264,0.35806538345189404,1617.640708049398
3693.1758,0.35796404842170215,1334.9128620844704
3694.0254,0.35605012414472664,2076.104276741046
3694.8772,0.35304969162942285,3195.106496853076
3695.7273,0.3500755687302286,2296.2446819924444
3696.5793,0.347951607874073,2345.5393248217624
3697.43,0.346864288355022,2657.5662955535413
3698.2825,0.3464549736715487,2277.3121829109073
3699.1333,0.34626020830367543,2242.9115785168433
3699.9841,0.345979213176492,2717.4975111400536
3700.8374,0.34544079801529953,5167.959331162146
3701.6887,0.34447514613972546,3088.748190512941
3702.5425,0.34293432168382537,2066.4656479463356
3703.3943,0.3409041717068505,2501.392738409325
3704.2483,0.33876437475793936,3244.6995470865054
3705.1003,0.337031733708348,3374.7712611775833
3705.9526,0.3359959623694778,2274.4235916640428
3706.8074,0.33559765956789567,4138.810633984015
3707.66,0.3355891089126455,2676.4437436797543
3708.515,0.3358097779177561,2183.9226853153486
3709.3682,0.3363173914945077,2484.119157044793
3710.2234,0.33727556937826203,1892.2124651614215
3711.0771,0.3386774710297675,2748.0515802633736
3711.9307,0.34014122100810085,3179.031919185314
3712.7866,0.3409645893741483,2148.9471041699594
3713.6409,0.3405038399557495,1854.916307423852
3714.4973,0.3386513505259396,1364.0629736404228
3715.3518,0.33600298446063565,1627.8083210533505
3716.2085,0.33353678038850015,4811.740989206154
3717.0635,0.33215019488184533,2602.77049865078
3717.9185,0.3322382118523483,3349.0609840716256
3718.776,0.33363199424496776,1679.2797053169895
3719.6313,0.33577002431479014,1548.4460046274
3720.489,0.3380845078261531,4285.206654143767
3721.345,0.3402359606948237,4171.394079812453
3722.2031,0.34212042102825574,2193.9846366458864
3723.0593,0.34358927258230004,2806.2465398998656
3723.9158,0.344345037307173,2168.827203933977
3724.7747,0.3440426667772118,2311.9278161928287
3725.6316,0.3425383054634866,2787.1023832566893
3726.4905,0.34003215132282727,3323.9862924293993
3727.348,0.33711192953240404,2873.508578755234
3728.2073,0.33462212963609134,2370.9162271641467
3729.065,0.33343759255020666,4647.863416370901
3729.9229,0.33398846446423625,2458.3010483758235
3730.783,0.3359236242773597,2745.704861644086
3731.6414,0.3381535418278182,2390.352349153697
3732.5017,0.339474675612828,2363.2338453424186
3733.3604,0.33925922859198226,2925.692252694922
3734.2214,0.33775786522498913,2574.0282605520315
3735.0803,0.3357792283733532,2318.5740256115796
3735.9417,0.3340265614565782,2116.305343737423
3736.8013,0.3326747781813898,2752.3668660444755
3737.661,0.3313730052110169,2791.3756908837877
3738.5227,0.32970505617627127,2326.933974856866
3739.3828,0.32766017128404323,3739.4600070489137
3740.245,0.32565443453385123,2713.9241403653996
3741.1055,0.32418013999366424,3245.1118514385903
3741.9683,0.32337732155469173,3440.520376536718
3742.829,0.3230447860233107,2300.3356811326266
3743.69,0.3229201924918508,3305.364630884594
3744.5532,0.32294431320994194,4261.104073174236
3745.4148,0.32326272723706984,3017.9228791157934
3746.2786,0.324054042494294,2387.779231154706
3747.1404,0.3253354278486877,2310.642507325232
3748.0044,0.3268963242192286,2647.213819528397
3748.8667,0.3283444921332248,2353.0394565078973
3749.729,0.32930232827730116,2175.829729104811
3750.5938,0.3295581147772248,2042.9433206880478
3751.4565,0.32913338493092614,4187.769088495486
3752.3215,0.32824195856114824,3757.684336447404
3753.1848,0.3271888685703774,2917.3075196352484
3754.0503,0.32624136928268443,3685.9249083571576
3754.9138,0.3255626705847974,4210.6648947651565
3755.7776,0.32517052630218496,2397.1714612001642
3756.6438,0.324978087302033,3372.8212714849274
3757.508,0.3248596251319869,2276.5372573211066
3758.3745,0.324712661260865,3434.326404763355
3759.239,0.3244913293449354,2366.7841053310262
3760.106,0.3242030427172549,3273.4883533250895
3760.971,0.32390930721901556,2034.3043458755508
3761.8362,0.3236982203555832,3968.8131348882202
3762.7036,0.32360972416222084,2311.108926421968
3763.5693,0.3235460925103886,2375.992170416156
3764.437,0.3232865272044642,2151.1331390887235
3765.3032,0.3226437022463856,2094.5335361748807
3766.1714,0.3216147365122738,3213.1483187578265
3767.0378,0.32040317431159326,2569.664501455865
3767.9043,0.319285161742939,3592.4875119653598
3768.7732,0.3184829064825757,3570.3230462656184
3769.6401,0.31808313704659047,3177.62468725777
3770.5095,0.3179767098895971,4285.558666884538
3771.377,0.3178947525006094,3150.7421313355735
3772.2466,0.3175415303022664,2129.2552255337396
3773.1145,0.3167802923298297,2274.439943511403
3773.9824,0.3157371470430997,1995.3496798621243
3774.8528,0.3147870738166236,2870.250263712197
3775.721,0.31442270637920905,4752.601851669199
3776.5918,0.31497053026290195,2896.068278718146
3777.4604,0.31631792223983096,3805.377995345455
3778.3315,0.31790214402476347,2923.2615095242545
3779.201,0.3190414961891153,2654.245105937296
3780.0703,0.3194385559328665,3523.7467952493507
3780.942,0.3193613807424788,3263.0793575386638
3781.8118,0.31940553227480867,2694.9931841379257
3782.6838,0.3200268764839739,2629.0859688072705
3783.554,0.32122145980257916,2936.3475242296645
3784.4265,0.32259198898959607,3115.989756383262
3785.297,0.3236449547872867,3847.637401958291
3786.168,0.3240924619905662,3108.601813098201
3787.041,0.32387234251404134,3759.327932143734
3787.912,0.3230066439079889,3411.380824575592
3788.7856,0.32147048023933583,3189.559891813873
3789.6572,0.31924452253693814,2311.1008011529207
3790.531,0.316410678312274,2854.907898673373
3791.403,0.31324518238521865,3416.854487063467
3792.2754,0.31007911203203703,4933.419494632334
3793.15,0.3071438768825989,5199.566391294779
3794.0225,0.30448421656709707,3754.996460104495
3794.8972,0.3019489856359207,2661.6762213248785
3795.7703,0.29939421995259075,3452.300184070932
3796.6455,0.2967965576123082,3171.0616029259104
3797.519,0.29437553584910653,3174.307042910756
3798.3926,0.2925072791462418,4007.5812590361083
3799.2686,0.291588198609101,3900.7218060526666
3800.1426,0.2918282115065252,3108.5823234306968
3801.0188,0.29309983019543984,3839.154538170607
3801.8933,0.29499900379183613,3843.814921469265
3802.77,0.29712391078170014,3606.4444676822563
3803.6448,0.29929986212353255,4021.063102053572
3804.522,0.30162262817794216,2997.183821748885
3805.3972,0.3041458318918902,3061.106923516574
3806.2727,0.3066389494050386,2654.437004731902
3807.1504,0.3085681450637752,4335.963547931923
3808.0261,0.3094207276951573,3508.7268381360186
3808.9043,0.3091672774426069,2568.5706275663115
3809.7805,0.30842957252578734,4835.180126530296
3810.659,0.3082057333031015,2399.118822529217
3811.5356,0.30926368805281385,3959.6763789290144
3812.4126,0.31161988462017864,2680.975877396413
3813.2917,0.31452681169942764,2886.3415574683527
3814.169,0.3169348984458791,2689.008347142238
3815.0483,0.31815563119091816,4208.672469771723
3815.926,0.3181091402970551,3071.5896175634484
3816.806,0.3171802851829321,2503.0699758462683
3817.684,0.3158466647866624,2068.810900068824
3818.5623,0.314400082015574,2895.905865669446
3819.4429,0.3128866001245443,1750.7978349952657
3820.3215,0.31122475614873923,3217.4580914885332
3821.2024,0.3093675104895032,3614.604346479428
3822.0815,0.30749036855352024,2222.8805785375375
3822.963,0.3059398401645998,2983.0877289240934
3823.8423,0.3050291804993092,3450.7730566333344
3824.722,0.30472685429659363,3127.273237613641
3825.604,0.30458564572506397,3489.1088309217494
3826.4841,0.3039388994373758,3362.658611801783
3827.3665,0.3022276378613742,3450.0282917514496
3828.2468,0.299246554130886,2543.900655303778
3829.1296,0.29513993592030485,4097.660228808676
3830.0105,0.2903661022201456,3104.3675234382276
3830.8916,0.28550213901649574,2780.863474046799
3831.7751,0.2811316397881533,4210.20280961751
3832.6565,0.277726459515496,3023.813028478929
3833.5403,0.27545460991303283,3784.2838198005425
3834.4224,0.274227425853509,5041.269971895893
3835.3064,0.2737410189818514,3556.9396229419813
3836.1887,0.27366265856030897,5242.011503451454
3837.0713,0.27379894290252005,2965.7274257449144
3837.956,0.2742213279743282,2963.0358879597943
3838.839,0.2752183760899301,10581.587662985072
3839.7244,0.2770909309548805,3689.491101191804
3840.6077,0.2798935439711983,3568.4850899108587
3841.4932,0.2833833447872265,3977.4048901353644
3842.377,0.2870658493152353,4605.956791398589
3843.261,0.2904565583502679,3346.3646628522392
3844.1472,0.2932962916547199,4098.888795996072
3845.0315,0.29567183445515766,4089.871334290409
3845.9182,0.29797073494813836,4233.158500290869
3846.803,0.30055952176625367,2643.3605526029764
3847.69,0.30360106663745023,5598.201023723553
3848.5752,0.30698246976733756,3058.9758384548873
3849.4604,0.31050791791647026,2841.1889343625103
3850.3481,0.31402434342069474,2472.850397645292
3851.234,0.3173782442101693,4354.9283135932055
3852.122,0.3203425832674275,3584.1385864888653
3853.0083,0.3225053617037566,2389.8239907389734
3853.8967,0.3235266226531259,2375.703040749194
3854.7832,0.3234209575099326,2689.867064589923
3855.6702,0.32268645969166193,2696.676197503862
3856.559,0.3220398248155351,2434.127127426239
3857.4463,0.32201914536254855,3156.057963812685
3858.336,0.3227393174976121,2579.6388205013645
3859.2234,0.3239345055626049,2505.214736204108
3860.1135,0.3251776624018195,2791.3919618322493
3861.0015,0.32604496895580337,2774.3384682074598
3861.8896,0.32622315205914487,2851.7890939616095
3862.7803,0.3255107626453424,3442.709035836285
3863.6687,0.3238593669799609,3334.0585145077166
3864.5598,0.3214053196109468,2850.146634732033
3865.4487,0.31851065768482106,3499.679053409491
3866.34,0.3156030506716097,2471.70798103656
3867.2297,0.3130268707442736,4575.196723944612
3868.1213,0.3108418550762141,2276.29309845933
3869.0112,0.30889720397829895,2547.3185141387185
3869.9014,0.30695941476574634,2347.3700950162824
3870.7937,0.30483557768019204,2768.326553627612
3871.684,0.3023685693941984,5257.867894648474
3872.577,0.29937759066630615,2719.5418324339116
3873.4678,0.2958076277423286,2489.401744591635
3874.361,0.2918072462640403,5480.676590777956
3875.2524,0.28778406908207727,4319.363275024133
3876.1438,0.28414409335584756,3941.660548399158
3877.0376,0.281106733458885,4177.349946113895
3877.9297,0.2786388576708973,3588.009389444606
3878.8237,0.27645389821056854,3442.494904016471
3879.716,0.27416742569101443,4710.294709031036
3880.6108,0.27137206739904945,4598.583118170177
3881.5037,0.2677771612119309,3778.789061118593
3882.3965,0.2632307256688105,4812.0051703827585
3883.2917,0.2577696760543768,3007.235358611506
3884.185,0.2516721381950971,4810.991090645031
3885.0808,0.2452897588825881,5595.646636804302
3885.9746,0.2390548214868278,4617.0955697620775
3886.8706,0.2332959749887789,7130.106427317041
3887.765,0.2283666176056419,4440.508862752738
3888.6592,0.22459100063343532,5264.250207769757
3889.556,0.2222798262599599,5253.213497864574
3890.4507,0.22162962131866898,3891.059826512983
3891.348,0.22259793795794525,7366.202742637515
3892.243,0.22496329402903645,4504.573243965576
3893.1406,0.22851309229948855,4058.5508330941257
3894.0361,0.23310334556887186,7385.826133824648
3894.932,0.2386361679063637,4642.3599728561185
3895.83,0.24486341914585863,6723.125972551924
3896.7263,0.2512715815686368,4481.588918156098
3897.625,0.2573146090346171,3479.738125816089
3898.5215,0.26249710417243255,3355.214095474602
3899.4207,0.26666132064549003,3136.2289847072834
3900.3176,0.2699586622256519,3536.846421484466
3901.2148,0.27287616127776626,5056.356603418179
3902.1145,0.27597875008537304,2810.9294471735666
3903.0122,0.279626109137009,3730.6361789212415
3903.912,0.28390998689192637,4257.83403534758
3904.8103,0.2886887148332755,2924.3390510041613
3905.7107,0.29384794963779887,5461.777658432753
3906.6094,0.2992919865593158,4828.472972178405
3907.508,0.3049188622826998,4254.619644609366
3908.409,0.3104524057181523,2507.6725038740774
3909.308,0.3154146553012171,2995.1982357308098
3910.2097,0.3194387858309535,2918.9074599541855
3911.1091,0.32245682128840714,4126.0774497371185
3912.011,0.3248251778750801,3466.876234021771
3912.9111,0.32698092684538105,2899.8602929955514
3913.8113,0.3291180825788398,2656.5424162079453
3914.7136,0.331084684214721,2858.974732711046
3915.6143,0.3326542403998255,2492.4641655072733
3916.517,0.33390227490530094,2791.559597429058
3917.4182,0.33522236747932,2586.261138051386
3918.3215,0.33705785653353565,2705.792164531438
3919.223,0.33953320087292255,2045.2477517585112
3920.1245,0.34238517758278586,2344.459194081818
3921.0286,0.34514127777347975,3007.599042998358
3921.9307,0.3473741245581448,1862.319348802825
3922.835,0.3488818207294663,2855.0051029774927
3923.7373,0.3495978945699663,2214.0493708160648
3924.642,0.34953012135790956,1795.8757483458942
3925.5452,0.348753380080967,3374.1652596433614
3926.448,0.34746682072349716,2145.722139480955
3927.3535,0.34596363729871643,2472.1773524908394
3928.257,0.3445420477784896,2117.531016848686
