wavl,flux,ivar
3566.9744,2.0673586806674047,161.48491524089303
3567.795,2.0634283217650013,117.39280156081959
3568.6177,2.059868145586129,228.12303421730334
3569.4385,2.0560479343617493,122.35721766921631
3570.2617,2.0514397171909047,531.6582466671609
3571.083,2.0460164447151943,126.36657748869894
3571.9065,2.040211011083052,154.45559365388735
3572.7283,2.034816711386613,106.24208539459497
3573.55,2.030608613010467,121.50418071329383
3574.374,2.0281067611888277,407.5409692582412
3575.1963,2.0272145869192064,158.68935309078677
3576.0208,2.02688535431726,182.87673814501133
3576.8435,2.025439128885057,261.5570961732015
3577.6682,2.0215690764841283,106.54024311561169
3578.4915,2.015423291902209,84.99335271894792
3579.3145,2.0086860415110293,223.36825368514423
3580.14,2.003645527050545,245.00317111632802
3580.9636,2.001962804125023,132.78492580301608
3581.7893,2.003706756656481,109.86450906161156
3582.6133,2.0072761275454387,182.05744425988834
3583.4395,2.0101655330552597,252.49382518572673
3584.264,2.0103046000672364,55.55868007947384
3585.0884,2.007362835726506,238.37857846790104
3585.915,2.002905724247907,226.86418200572388
3586.74,1.9994163888222054,249.4442696738509
3587.5671,1.9987437992514216,187.22174676256827
3588.3923,2.0012629878099735,109.23133800979036
3589.22,2.0059827182440144,163.90386615799696
3590.0457,2.0112227644682843,106.05585096433146
3590.8716,2.015406893970781,119.23963513198076
3591.6995,2.017457608084345,126.23268349243685
3592.526,2.0170201371193657,311.76330816116746
3593.3542,2.0144893455378377,178.73939891342113
3594.181,2.0106809002284947,366.5115648107971
3595.0098,2.0062464905694,115.02668509099287
3595.8367,2.001465919483835,183.56242036460952
3596.6638,1.9964311202868394,115.4854727991431
3597.4934,1.9914744247474951,110.78889485079765
3598.3208,1.9871700126771936,184.99500632017828
3599.1506,1.9837449085850332,131.97927045411376
3599.9788,1.9807642075454668,130.9844189736311
3600.8088,1.977190068694398,203.91864272185052
3601.6372,1.9720600809726925,324.5533781890753
3602.4678,1.9651054195726358,69.6160772785512
3603.2964,1.9572039525907372,249.88266181251257
3604.1252,1.9500020489393612,312.2001434163791
3604.9565,1.9451348962594452,134.25425324280815
3605.786,1.9433660719615522,106.55170102637176
3606.6172,1.9442959975699075,168.4717736271005
3607.447,1.9470075840414545,280.3384427512365
3608.2788,1.9507625082488398,163.99010828877556
3609.109,1.9549921546867786,134.26184279856503
3609.9392,1.9588993448863197,155.36455801232304
3610.7717,1.9613484292476349,106.47401939367373
3611.6023,1.9614863691424855,114.80360482226065
3612.435,1.9594487974422705,107.20004109561248
3613.266,1.9562405043786824,177.0821059696829
3614.0994,1.952903955953126,183.2911952939857
3614.9307,1.9499533521477137,171.23510430506337
3615.7625,1.9474380885431934,76.65947784956762
3616.5962,1.945468550780748,67.84296027018749
3617.4282,1.9443918358003776,200.13276335792045
3618.2625,1.944393776985141,208.63993819225965
3619.0947,1.944992214319615,244.2269768757671
3619.9292,1.9449666997003399,152.40419315331354
3620.762,1.9430241651791451,136.22937290753737
3621.595,1.938815820068892,145.84297280141715
3622.4302,1.9334534566012755,186.93905494503886
3623.2634,1.9289982375124843,131.67430417893024
3624.0989,1.9269677827668437,185.24343322036148
3624.9326,1.9272694146170917,143.9874138256189
3625.7686,1.9282649247319505,147.7115196825587
3626.6028,1.927988716773977,198.64996639869506
3627.437,1.9254038350383218,286.973479866148
3628.2734,1.9207626697988451,238.37903351393015
3629.1082,1.9151496349359565,174.703001427882
3629.945,1.909528287837089,340.5234995263428
3630.78,1.9042419532217911,150.40597745973946
3631.6174,1.898994309541434,110.76143560381799
3632.453,1.893603878249278,178.97274776403867
3633.2883,1.8884507976130855,100.4403231419138
3634.1262,1.8843889730911294,158.03404994492936
3634.9622,1.882112596616881,169.9084576567834
3635.8005,1.8815340489331804,132.7976229080766
3636.637,1.8817765792798538,676.6345352974173
3637.4756,1.8814709625807216,125.73048179943417
3638.3123,1.8792754516162236,265.42254028167304
3639.1492,1.8745339053841612,159.69268768022772
3639.9885,1.8678492769402437,152.40471692626662
3640.826,1.8611995956646226,310.55857366785744
3641.6653,1.8570663175984023,140.0442967254341
3642.5032,1.8573059059641066,74.28279540709067
3643.343,1.8620637833551683,140.9219714723464
3644.1812,1.8695886517309424,232.93780222643164
3645.0195,1.8771978726575338,212.29205787325225
3645.86,1.8826481069793968,281.87084353532504
3646.699,1.884901286269289,184.5571074523608
3647.5398,1.8839384032410724,140.81655461128753
3648.379,1.88000365314721,376.26745807490454
3649.2202,1.8732822175776138,97.7694482425271
3650.0596,1.8642119061789113,208.0557488359774
3650.8994,1.853696306321843,180.61377795559795
3651.7412,1.8431902866982943,173.21839425221313
3652.5813,1.83444060869189,111.34234249352772
3653.4236,1.8287210734079262,282.91946346905587
3654.2642,1.8262812968522397,399.7611857438449
3655.1067,1.8259178591351717,347.1184527862616
3655.9475,1.8255304158743981,113.67583322484053
3656.7886,1.8233224567089672,86.36451699521697
3657.6318,1.8189559315857882,133.178265546875
3658.4734,1.8138416083927047,288.12174436467774
3659.317,1.8102201573019003,352.3282647715107
3660.1587,1.8099323387203947,212.58193361764873
3661.003,1.81346995604568,500.716197561624
3661.845,1.8198240626245288,206.12608082327193
3662.6875,1.8270614612562521,403.20081186377945
3663.532,1.8331520182333703,237.37137791607853
3664.3748,1.8366710664822872,187.79887658842335
3665.2197,1.8371070767219175,124.10612365514633
3666.063,1.8345277403968088,456.6128429650915
3666.9084,1.8292487208114874,178.86097933138902
3667.752,1.8218784023385317,258.8471526470758
3668.5977,1.8134471828310246,120.47916808924184
3669.4417,1.805501434095878,194.38103929003262
3670.286,1.7993924893964912,362.4501339549234
3671.132,1.7955915248542407,114.53982842020632
3671.9768,1.7934750340540795,344.7546118479745
3672.8235,1.7919348580672025,297.4477382699268
3673.6685,1.7904492086914976,165.3232532764044
3674.5156,1.7894386467234602,126.59451680384346
3675.3608,1.7895769757515052,200.53631165655733
3676.2063,1.7906877187083399,180.1860958212261
3677.0542,1.7914990894940002,250.93024876111605
3677.9,1.7905126731200822,242.56485069537928
3678.748,1.7871405694027553,199.87594935518965
3679.5945,1.7820745145156425,120.63365606223329
3680.4429,1.7766627452782375,294.11323689216914
3681.2896,1.7721747193351987,248.82260249020854
3682.1365,1.7692573796664066,134.92224759539076
3682.9856,1.7678419320588827,185.0610690345757
3683.8328,1.767119009892716,127.62601905675825
3684.6824,1.7657845624354294,201.07356840849997
3685.53,1.7628484353553315,169.24816805529096
3686.38,1.758423739479964,298.7464794630481
3687.2278,1.7537729783215577,161.32693376328328
3688.0762,1.7502581862171296,212.90769045400148
3688.9265,1.7483498444010075,283.5307913395386
3689.7751,1.747424164877608,455.90002759819015
3690.626,1.746373719521072,102.20943261631261
3691.475,1.7444747103576077,219.20021438271579
3692.3264,1.7418467886850213,148.84684092307444
3693.1758,1.7393888766785452,271.62825345988654
3694.0254,1.7381357584464399,353.1350751413802
3694.8772,1.7385637120948274,191.02912586722874
3695.7273,1.7401716381810035,186.93298482915816
3696.5793,1.7416312588542093,323.17209986073885
3697.43,1.7414077416268579,94.64583927075913
3698.2825,1.738665966643634,383.12130850567746
3699.1333,1.7339593145457026,140.47386604240717
3699.9841,1.7290617018184937,142.2203216592083
3700.8374,1.7259056894451656,133.16593085353554
3701.6887,1.7253081455839656,238.8637584570094
3702.5425,1.7264383368602991,185.545931030749
3703.3943,1.7276004708616128,393.0673096549888
3704.2483,1.7275968895646034,167.86477037928836
3705.1003,1.726486805442771,193.3137803338664
3705.9526,1.725132433172117,256.0045427372975
3706.8074,1.7240331979919288,192.10753096302687
3707.66,1.7226728601524302,136.61361088643946
3708.515,1.7200340195659536,218.7193989562681
3709.3682,1.7158499538664969,374.3179076949536
3710.2234,1.7111864446615137,126.2772538640012
3711.0771,1.70787939907877,89.7099133800979
3711.9307,1.7071692388816722,97.2033574000455
3712.7866,1.7089052517024286,134.82193583347913
3713.6409,1.7116865133122887,145.81333750739861
3714.4973,1.7137586434324394,391.88479563832266
3715.3518,1.7138911004446693,143.85074152236308
3716.2085,1.711865168776946,178.6987623633244
3717.0635,1.7083376626744555,219.23410414140432
3717.9185,1.7043131141838144,231.75205949077102
3718.776,1.700658528030308,405.95469743553315
3719.6313,1.6978756250429015,107.49682530524181
3720.489,1.6959760913341724,118.12974937837794
3721.345,1.6946736845708255,170.21948414830004
3722.2031,1.6936658551770387,498.0728126918458
3723.0593,1.692913750886991,130.29552902091916
3723.9158,1.6925182237168597,264.09970818761906
3724.7747,1.692348591115815,256.13429632534707
3725.6316,1.6918179670380775,453.4843525208432
3726.4905,1.6901520777510044,207.9539281646312
3727.348,1.6870288742167716,310.1533710856593
3728.2073,1.68294479664523,207.72004177339426
3729.065,1.678953702528509,579.4184120681638
3729.9229,1.675811361184435,149.52948145661247
3730.783,1.6735082336967637,150.2059947514743
3731.6414,1.6715664759231057,185.55740930102013
3732.5017,1.6696852448274666,319.2006513002543
3733.3604,1.6680698345570613,343.9126858940165
3734.2214,1.6670993815033515,324.7919387417066
3735.0803,1.6669410572744776,326.3057569354907
3735.9417,1.667435725238996,162.08782679119648
3736.8013,1.6682185875830513,331.60002476249696
3737.661,1.66876149138641,283.18975068245135
3738.5227,1.6683489316571634,166.02510262586142
3739.3828,1.6662640338536912,186.08276316344885
3740.245,1.6621988095386977,211.12424616009974
3741.1055,1.656633562425045,249.4778868621128
3741.9683,1.6506652994907725,384.328748649921
3742.829,1.6456481381072738,159.93135603400958
3743.69,1.6426449017696612,215.0905010571372
3744.5532,1.6422360968120993,134.52049839112934
3745.4148,1.644285452104039,262.9035266055274
3746.2786,1.6477098361200346,191.39148730300434
3747.1404,1.6505765231461833,168.5495868256378
3748.0044,1.650915074838812,259.2288267916035
3748.8667,1.6477062551031836,165.59748959878212
3749.729,1.6413863289479884,237.3756005642237
3750.5938,1.6334102047277055,289.22440956641
3751.4565,1.6255321036242836,305.02194658746913
3752.3215,1.6191028721778566,151.79864579121633
3753.1848,1.6150218472530895,589.8502757238111
3754.0503,1.6135072125959309,263.2068974179083
3754.9138,1.6140431843992569,844.5741078758754
3755.7776,1.6155570296982054,86.82189654190698
3756.6438,1.6170807144290087,174.67446345754215
3757.508,1.6182748058225407,859.2364730495237
3758.3745,1.6193859076192498,255.84207469080425
3759.239,1.620692329351138,344.08501327185985
3760.106,1.622108077336014,280.10530111809715
3760.971,1.6231089803526462,182.95708624752342
3761.8362,1.6229742397170488,168.24918534712168
3762.7036,1.6211339589664517,342.47676636054223
3763.5693,1.6175881661972273,353.68734915770966
3764.437,1.6129702712986678,301.4720120264763
3765.3032,1.6081898016711214,232.10598313364878
3766.1714,1.6037641787305534,342.2704207226748
3767.0378,1.599676905023911,463.3678442863751
3767.9043,1.5956483422272971,226.4240026988535
3768.7732,1.591620466595642,442.87966707623093
3769.6401,1.5879164076760115,456.9719284157492
3770.5095,1.5849497521991036,394.30378079533256
3771.377,1.5830398344803582,309.2138663784045
3772.2466,1.58228142441548,159.8063973020959
3773.1145,1.5826278093264043,203.71794290476427
3773.9824,1.5839025530814372,280.21439041642805
3774.8528,1.5858257497805421,199.92052963906315
3775.721,1.58802536866497,206.475208279238
3776.5918,1.5901007723169527,239.94128997742024
3777.4604,1.5915515287074777,386.6707867930859
3778.3315,1.5918278702271322,143.59853531946666
3779.201,1.590473336792064,877.0090942465915
3780.0703,1.5874179050396011,369.49029194340926
3780.942,1.5831322289335703,123.31756452692092
3781.8118,1.5785405625712212,241.87409863847594
3782.6838,1.574526049971076,434.08793985217187
3783.554,1.5715670202518601,191.4089575909021
3784.4265,1.5695467788935638,152.63617959721543
3785.297,1.568037018079605,126.45217945430804
3786.168,1.5665373015323862,296.47702942896535
3787.041,1.5646282495765653,324.9489022491092
3787.912,1.5620649017460295,186.97079639090356
3788.7856,1.5588572144289292,347.6132785578298
3789.6572,1.5553288870096462,490.12503568024897
3790.531,1.5518102645047933,399.59149999558065
3791.403,1.5483636364628324,365.4310303561911
3792.2754,1.5446406019827077,169.22613526388892
3793.15,1.5401999845427976,215.24581007197636
3794.0225,1.535000962595365,307.09391729796505
3794.8972,1.529555071179466,358.249410824027
3795.7703,1.5247754533007003,174.35451672643865
3796.6455,1.5213131530264679,289.6516620828504
3797.519,1.519189439791918,892.2117255440712
3798.3926,1.517819686435567,440.06039197554753
3799.2686,1.5165907842644455,326.51000932369317
3800.1426,1.5153765552244824,435.85064613078845
3801.0188,1.514562533081951,287.83042691398225
3801.8933,1.514736086390457,174.5658374573818
3802.77,1.5164008939541889,236.69559968327573
3803.6448,1.5199069916028265,150.69776107745378
3804.522,1.525389317913392,284.9323238460664
3805.3972,1.5323997811803645,281.9642799144339
3806.2727,1.5398099613753762,344.23170953775895
3807.1504,1.5461165963763461,130.32814743190772
3808.0261,1.550190320090549,195.7913119629477
3808.9043,1.551997301015145,425.5724546288476
3809.7805,1.5524649579072503,305.2298847166148
3810.659,1.5528642092405662,217.959806430178
3811.5356,1.554034333001124,305.02656164540593
3812.4126,1.5560146892464557,331.3535648619444
3813.2917,1.5581863135278626,224.64829686058465
3814.169,1.5597469936677715,218.296289144024
3815.0483,1.5602036301058475,194.36288766254904
3815.926,1.559402093497745,321.9371756968373
3816.806,1.557236609095605,758.5637050057201
3817.684,1.5534975948391507,285.78812845169637
3818.5623,1.548112274391744,297.666656459085
3819.4429,1.5415167386660826,269.95366016461446
3820.3215,1.5346739006838648,159.20316764470027
3821.2024,1.5284244429374365,204.9098802686062
3822.0815,1.5231282519988303,193.97026864352634
3822.963,1.5185913612304889,320.20184182503033
3823.8423,1.5145589993335207,349.35280091586924
3824.722,1.5108680920191828,294.6335378997565
3825.604,1.5072737545704151,288.67229387448924
3826.4841,1.5030739321456,462.81867052093025
3827.3665,1.4969639378751773,333.28889119024285
3828.2468,1.4876505037586345,529.633962936258
3829.1296,1.4745506975003133,275.7743834980038
3830.0105,1.4584365886497976,361.2311626651732
3830.8916,1.4408714449483493,308.4585246385843
3831.7751,1.4234160629407144,231.69878477702014
3832.6565,1.407114858205185,282.6585138350733
3833.5403,1.3921846935170223,275.48846427306137
3834.4224,1.3788840543709815,340.21577849116187
3835.3064,1.3678610004124037,467.59588072389846
3836.1887,1.36061110937933,387.3756667286332
3837.0713,1.3587753885299791,232.82100132829217
3837.956,1.3631192078646872,455.5301751157067
3838.839,1.372590060451839,430.5198138457468
3839.7244,1.3847794813014629,736.247922739733
3840.6077,1.3972466047286372,290.4645621652036
3841.4932,1.408988976225345,431.5661952083775
3842.377,1.4202313054957736,374.3832779397188
3843.261,1.4316507730863015,188.48241703794986
3844.1472,1.443479796441522,442.6747386414488
3845.0315,1.4553690831251869,482.8871095743584
3845.9182,1.4670164461835786,270.29788649643535
3846.803,1.4782769570475942,311.4272301960515
3847.69,1.4893651406142172,396.02545149908093
3848.5752,1.5003825971820623,315.35982313830135
3849.4604,1.511286519867771,272.00789197741534
3850.3481,1.5218437744672701,270.95237006971
3851.234,1.5316956787071545,389.28240428831765
3852.122,1.540628970981311,291.80394602022056
3853.0083,1.5483525075241482,417.9918622523636
3853.8967,1.5546538625958326,204.60788922257015
3854.7832,1.55934679212179,238.52817364571868
3855.6702,1.5624668142889795,284.0277175210938
3856.559,1.5641471452970745,195.72830740941552
3857.4463,1.56454493733429,359.5185805180431
3858.336,1.5639576605058825,231.19873693540202
3859.2234,1.5630012770806414,256.15399571039524
3860.1135,1.5624878505315394,185.10872726074612
3861.0015,1.562909828112497,289.4013133681485
3861.8896,1.5639658312767897,239.36451532196358
3862.7803,1.5647183428463445,369.05536002760766
3863.6687,1.5642897214297968,254.90480287719873
3864.5598,1.5624862311645409,168.6239812822887
3865.4487,1.5597535871982513,241.88736275730233
3866.34,1.5564526838118102,297.52150308980873
3867.2297,1.552226728310337,209.31734789762626
3868.1213,1.5459457383077948,173.65136676132957
3869.0112,1.53657565495785,271.77119640352646
3869.9014,1.5239773040350815,204.15756169367083
3870.7937,1.509063319245766,267.2747573250957
3871.684,1.4932351053435589,579.4965119265871
3872.577,1.4773371024707804,248.18373467359348
3873.4678,1.4617641326281905,212.58192406023758
3874.361,1.4464626308523458,294.1439587606746
3875.2524,1.4314718393787353,548.6027532106
3876.1438,1.416578380738916,428.54847607833796
3877.0376,1.4012997052417773,375.4889861915324
3877.9297,1.38517411109211,804.6676438706647
3878.8237,1.3678952986474981,485.38658903731744
3879.716,1.349804085331496,387.3151907606811
3880.6108,1.3313845154346664,347.3204329210538
3881.5037,1.3131210737673122,1039.7321766991806
3882.3965,1.2949005027673057,524.686719472937
3883.2917,1.2762471566331912,335.9495238906191
3884.185,1.256827923149458,386.02706337996443
3885.0808,1.2364047784240286,448.21119870131133
3885.9746,1.2153299952706926,354.5324215678996
3886.8706,1.1942119189069798,543.9683206345572
3887.765,1.1743732008984136,623.6431056121078
3888.6592,1.1574814904258135,472.9437700847689
3889.556,1.1453665095528875,694.1582203936296
3890.4507,1.1395705910597622,451.9052771441552
3891.348,1.1408050732931416,523.6853119844463
3892.243,1.1490374660299896,1524.2701181477096
3893.1406,1.1636638976094784,514.7089578956147
3894.0361,1.1833553581391891,674.4223130577279
3894.932,1.2062689529750805,474.6636590947284
3895.83,1.2302004747034083,296.6969831811613
3896.7263,1.2529486073638283,442.34252123429656
3897.625,1.2733055424142257,360.5964052767744
3898.5215,1.2909185775142389,738.0257798821457
3899.4207,1.3066531527013752,305.74713208971906
3900.3176,1.321863462514022,678.9015144959674
3901.2148,1.3380813283267954,609.7899714667649
3902.1145,1.3561399803746352,879.7658044264434
3903.0122,1.3755791256591063,380.1331294132262
3903.912,1.3951811512867762,524.8640521190242
3904.8103,1.4134435245696335,308.66980676115315
3905.7107,1.4297161298921062,1005.7494522899675
3906.6094,1.444136246324675,356.2684958824791
3907.508,1.457543884471844,521.5474318351362
3908.409,1.47088678752578,325.57680258361836
3909.308,1.4848532901597618,281.34041900711753
3910.2097,1.4999847521909395,277.1319787029199
3911.1091,1.5162263387240023,324.00263998727564
3912.011,1.5329585578773552,147.7719751767086
3912.9111,1.5486951893370553,296.8165797836012
3913.8113,1.5619597420796645,562.6797846360076
3914.7136,1.5720612763523745,286.44720152698284
3915.6143,1.579510926400808,560.0235153765582
3916.517,1.5858233604501846,402.1076083138914
3917.4182,1.5924955511400052,361.6321510404998
3918.3215,1.6003408991569608,247.47057887567232
3919.223,1.6090872853892377,256.0640809032374
3920.1245,1.6177739994945899,341.79937294312
3921.0286,1.6252928583268322,270.7006488106451
3921.9307,1.630928324937026,241.16743604188125
3922.835,1.6347539924466503,166.5329598930524
3923.7373,1.637329211891725,525.5340812658875
3924.642,1.6392542963309198,309.7107670502129
3925.5452,1.640673956182257,282.610047436763
3926.448,1.6412787555302752,625.0449305788704
3927.3535,1.6406270588256848,392.3888958482943
3928.257,1.6385592436998118,332.51057897701054
3929.1628,1.6353304020839368,257.25572720675115
3930.0667,1.631463900117989,397.00455354789693
3930.9731,1.6273924410300626,251.37555743130886
3931.8774,1.6234069121786447,196.95677064532498
3932.782,1.6196963612415347,231.44478272748785
3933.6887,1.6164664929561066,312.88891637554747
