wavl,flux,ivar
3566.9744,0.49707872076658716,1103.9416112187737
3567.795,0.494457708461439,1973.0202243574697
3568.6177,0.4904801274697292,1856.2587633723062
3569.4385,0.4857237645426582,2754.4350483343046
3570.2617,0.4806421088274443,1420.222579554177
3571.083,0.47567421078446354,2669.1430705021503
3571.9065,0.47127322865526716,1909.8735195486054
3572.7283,0.4679096969150033,2298.255947317383
3573.55,0.4657152330088243,2240.629096401461
3574.374,0.4644619942058153,2524.953791205671
3575.1963,0.4639366304099464,2172.1799537415664
3576.0208,0.4644128701847989,1385.669411181596
3576.8435,0.4666889584879415,1323.1607477531627
3577.6682,0.47144773646294463,2174.4901112777734
3578.4915,0.47835796473886233,2662.969219243993
3579.3145,0.4859345120084574,2269.492067830301
3580.14,0.49231075194425067,1405.1637293595386
3580.9636,0.4962308998238348,1200.6711666814472
3581.7893,0.4975581400475994,2639.829525078878
3582.6133,0.4968127169452641,1533.5471011546756
3583.4395,0.49469226453372034,1888.5768255223652
3584.264,0.4919238315313529,2134.356085728354
3585.0884,0.48922695761022705,1165.570229280639
3585.915,0.48713446294837354,3935.8950710781173
3586.74,0.4857599875402206,1882.9682024303904
3587.5671,0.4848276861006155,1767.2776745664203
3588.3923,0.4841342426883589,1138.9437500397246
3589.22,0.4839066733437647,1233.330851846162
3590.0457,0.4846634612428758,3271.889509400079
3590.8716,0.4866066487925694,2477.1101001732286
3591.6995,0.4892259623632395,1345.0409321441334
3592.526,0.49156671718544537,2033.544430322748
3593.3542,0.49301291733730607,2337.9415750929484
3594.181,0.4936906119173572,1866.3171380963383
3595.0098,0.4941924662200734,2794.375000563063
3595.8367,0.49488724061718053,1997.1312604394025
3596.6638,0.495574361382005,1658.1097047503868
3597.4934,0.49568543735091514,1428.4925674519304
3598.3208,0.4947225390358622,1600.1195175482671
3599.1506,0.4925145769486267,1773.6622171898491
3599.9788,0.48926227223400637,2755.743381994944
3600.8088,0.48545328411586364,952.8402969137788
3601.6372,0.48184467890685406,1414.3324009912412
3602.4678,0.4791868402305719,1906.3304316729539
3603.2964,0.47791112949538944,1688.5781546902658
3604.1252,0.47782240540791104,3124.774720954274
3604.9565,0.47827860647113174,1826.7877988442938
3605.786,0.478671470604792,2540.8602741976156
3606.6172,0.4788618129098519,1688.588753530276
3607.447,0.47913236270150716,2088.467985428236
3608.2788,0.47974568453199223,2403.7729208059964
3609.109,0.4805716701871602,1422.3377947133433
3609.9392,0.48120385334115684,2217.0970612812125
3610.7717,0.4813872389520097,952.2712800837774
3611.6023,0.48130072580671757,1752.214072174101
3612.435,0.48143840403585353,2001.3716449246626
3613.266,0.48225829322906105,2691.085973799349
3614.0994,0.48392613835799025,2050.436059517958
3614.9307,0.48625065288717545,1510.5572828159843
3615.7625,0.48882509514581957,1789.5978808175364
3616.5962,0.49119536934780805,1855.1666415354478
3617.4282,0.4930290723472726,1389.8944896022572
3618.2625,0.4942745766485765,1668.659051409052
3619.0947,0.4951214465553757,1743.2603963679053
3619.9292,0.4958399161263715,2015.5550266178802
3620.762,0.4964884965121673,1906.6450011366187
3621.595,0.496825337866364,3026.73898439835
3622.4302,0.4965428390105353,1356.2328371422175
3623.2634,0.4956622255273757,1826.244300566995
3624.0989,0.4946332152972005,1444.9081962171977
3624.9326,0.49403756356905243,1577.29769218597
3625.7686,0.4941738207169923,1476.978122864352
3626.6028,0.49493775860870975,1380.7771296684489
3627.437,0.4960086190511526,3019.791419537227
3628.2734,0.49713627684230155,2076.895987202864
3629.1082,0.49826439369146674,1563.4652088188325
3629.945,0.499431483081861,3523.3478810508323
3630.78,0.5005221625425252,1815.7849418011729
3631.6174,0.5012504513345137,1636.1142635760684
3632.453,0.5013827531689895,2845.8343815680323
3633.2883,0.5009821945561433,2016.5313595689006
3634.1262,0.500284474601566,1533.4367381926484
3634.9622,0.49936420813230203,2296.7468038355114
3635.8005,0.49798955855620075,1161.8775128871234
3636.637,0.4959320494556986,3204.001794989598
3637.4756,0.4933274374908556,2571.221715725802
3638.3123,0.4907784800611748,2564.671908413244
3639.1492,0.48899767488700996,1625.575110817068
3639.9885,0.48844436431819555,1790.0814461961118
3640.826,0.48913841222615156,1678.800861641529
3641.6653,0.4907468853480573,1120.2128473283901
3642.5032,0.49279564599328585,1564.5750209988094
3643.343,0.4948176746501095,2295.035925796044
3644.1812,0.4963088033979987,1801.2007230603767
3645.0195,0.4967828368341694,1913.311438396109
3645.86,0.49596980188181594,1419.8175148651126
3646.699,0.4941074963386185,1645.1013158386977
3647.5398,0.49193593716879747,3421.699621911835
3648.379,0.4903559311149159,1482.8429372352705
3649.2202,0.4899128672856468,1976.1365216470783
3650.0596,0.49058645193062356,2154.34620447345
3650.8994,0.49192726640254375,1520.1035205740548
3651.7412,0.49339611892810753,2355.6246609520967
3652.5813,0.4945861669924446,1727.831027192009
3653.4236,0.4952853072319414,1834.0893096858513
3654.2642,0.49539430184087013,1703.9282195031537
3655.1067,0.4948999099782734,3457.3843311657183
3655.9475,0.49392083924146074,2216.991670741694
3656.7886,0.4928028674411536,2137.595040720289
3657.6318,0.49209331922704186,1275.7018178017076
3658.4734,0.4922159222891419,2396.362154112182
3659.317,0.4930389202637273,1709.6050382276972
3660.1587,0.4939047905545772,1664.7142714339323
3661.003,0.4942670493931065,1754.2000491814426
3661.845,0.4942774937808174,1549.108550202924
3662.6875,0.49468441189437995,1889.159584456701
3663.532,0.49612940949110984,1849.8032705539936
3664.3748,0.49852743711563957,2443.798634392989
3665.2197,0.5010525324205523,2083.1081442100794
3666.063,0.5025404468979429,1754.3687489516524
3666.9084,0.5020784073363672,3129.5874475603932
3667.752,0.4993961162008232,1379.577219515834
3668.5977,0.49504095295183825,1994.4598718620891
3669.4417,0.4903397395699301,1612.3221046569602
3670.286,0.48689152892673654,1372.3735888290933
3671.132,0.4858783465507189,2773.5059711551066
3671.9768,0.4874426163999707,1802.5363727737097
3672.8235,0.49064768537080555,2326.4845935694875
3673.6685,0.4940693257953371,2054.6502616439275
3674.5156,0.4966309296286682,1950.6473926856943
3675.3608,0.4979485734367624,2407.1681077048797
3676.2063,0.49821276750632015,2287.0573649228
3677.0542,0.4977482568860715,1706.5130135740994
3677.9,0.4967819024372471,1716.4341864624876
3678.748,0.49547265629634096,1810.6771823723834
3679.5945,0.4940826582561259,2202.4573829020055
3680.4429,0.49299994621746096,2446.2747621238186
3681.2896,0.4926573693049539,1734.077570735245
3682.1365,0.49334302955705284,1197.9738766751884
3682.9856,0.4950092744908884,2284.923538780169
3683.8328,0.49707451688035675,1722.889568313774
3684.6824,0.4985308796341765,1671.12851443723
3685.53,0.49838314056467364,3920.259170768167
3686.38,0.4962533029832103,2592.363700956216
3687.2278,0.4926066760289876,1655.6655237880013
3688.0762,0.48846069458676783,2238.67814970097
3688.9265,0.4849828109495796,1666.9911638291123
3689.7751,0.4832057655769671,2338.726293690217
3690.626,0.4837517697610716,1227.791975606323
3691.475,0.48660829583977294,2439.2895573005994
3692.3264,0.49103745237724217,1079.4606625754761
3693.1758,0.49581583969983417,2463.945875482279
3694.0254,0.4998813695310125,1347.0253423758675
3694.8772,0.5027114831451106,1802.6107723200573
3695.7273,0.504223429219472,2702.1972604294265
3696.5793,0.5044332328754347,1732.2313307813754
3697.43,0.5032803702767725,2150.1756825931566
3698.2825,0.5008680298944044,2085.6062003604743
3699.1333,0.4977035093815919,2256.992705655146
3699.9841,0.49450985971265465,2046.8983540774304
3700.8374,0.4918497768144764,1819.803345606454
3701.6887,0.4899548639982632,1790.8240371567504
3702.5425,0.4888357202867255,1856.1366167877816
3703.3943,0.488579361967187,1553.4893964339165
3704.2483,0.48936041730120783,2207.1066579617273
3705.1003,0.49121049578426196,1484.2732859070945
3705.9526,0.49379269711775003,2109.2879554663923
3706.8074,0.496454876144058,1534.9381377249251
3707.66,0.49856183944197396,1825.9408682681258
3708.515,0.4999439909356703,1353.3394275321166
3709.3682,0.5009516961950589,2156.142491369785
3710.2234,0.5021377460835704,2162.2852753686457
3711.0771,0.5036781542664535,1993.2839538627693
3711.9307,0.5051347547721485,1395.5531588814904
3712.7866,0.5057986095157001,1276.31265354089
3713.6409,0.5053274695676154,2038.8198880120895
3714.4973,0.5040525343244673,2506.171991177682
3715.3518,0.5026779819952539,2339.7854394726187
3716.2085,0.5017298410915807,1412.2668708056046
3717.0635,0.501316769089515,3299.7466024552723
3717.9185,0.5012345617250665,1405.09924507604
3718.776,0.5012466770310825,1974.640653763241
3719.6313,0.5012504545247034,1503.0799609866717
3720.489,0.5012819492425139,1556.4895717750585
3721.345,0.5014647187155562,1714.6226189293852
3722.2031,0.5019945148320367,1788.5704802577116
3723.0593,0.503073625866063,1786.8599222935463
3723.9158,0.5047393403544257,2122.1187263656793
3724.7747,0.5066981880338564,2205.147354804924
3725.6316,0.5083505057947644,1585.0254904564483
3726.4905,0.5090894003469097,2109.1759982341846
3727.348,0.5085975106286186,1669.6225832161108
3728.2073,0.5070580518457585,1290.2550987366678
3729.065,0.5051022361127573,1971.2688641412885
3729.9229,0.5034382509413416,1376.677006086393
3730.783,0.5024231440780473,1801.1748952279438
3731.6414,0.5019019863910873,1870.2042253595828
3732.5017,0.5014492614948257,1986.8846287217123
3733.3604,0.5007894457551927,2026.6627714978283
3734.2214,0.49993707580045804,1374.6084530505025
3735.0803,0.49901823326352907,1853.828861898347
3735.9417,0.4980231877853872,2177.1924278968363
3736.8013,0.49686051856611796,1937.7445219512872
3737.661,0.49558091802776494,1653.9549004662022
3738.5227,0.49450094262492433,2249.0234968150908
3739.3828,0.4940161703276687,1715.619309780875
3740.245,0.4942421427333685,2199.558830537838
3741.1055,0.49487612218647675,1792.4644400089946
3741.9683,0.49541880456768017,1800.2439844341445
3742.829,0.4955350727917294,2146.4688382320337
3743.69,0.4952051293607133,1927.270618256524
3744.5532,0.4945401138989418,1921.9800182601132
3745.4148,0.4936074929134992,1097.3610976546968
3746.2786,0.4924942680367816,1541.3131827410568
3747.1404,0.49149797059342804,2634.6755555207537
3748.0044,0.4910418830486191,2590.029935762719
3748.8667,0.4913765448213412,1417.0586614826136
3749.729,0.49236471193469683,1567.2478076034727
3750.5938,0.4936345607845045,1938.48091845831
3751.4565,0.49488487950760585,2342.4307247432107
3752.3215,0.4960546820800826,1615.231401042114
3753.1848,0.49716977695516035,2015.601638935626
3754.0503,0.4982049281863358,1940.5163368608362
3754.9138,0.4991027656500043,1929.6826191744776
3755.7776,0.4999107890574879,1639.3325430024574
3756.6438,0.5007107552909937,2142.5555640708317
3757.508,0.5013858988072017,2093.529909287959
3758.3745,0.5015536873189801,2761.99469666257
3759.239,0.5008198796193564,1591.4540701720903
3760.106,0.4991806973441616,1823.1873395542923
3760.971,0.4971824893367286,1802.491808795191
3761.8362,0.49559695699184597,1925.7367128575565
3762.7036,0.4949129949729598,1738.9802300545202
3763.5693,0.4950155627541966,1776.9142253277194
3764.437,0.49531093100196355,1542.3762189630734
3765.3032,0.495202642403352,1904.8713975499768
3766.1714,0.49453539569591,1586.1683937966563
3767.0378,0.49369270451383834,2065.511034815716
3767.9043,0.4932686269044952,1830.1483404132155
3768.7732,0.49358850464218457,1573.3703174458517
3769.6401,0.4944377313162639,1774.5980791973523
3770.5095,0.49525982112755207,1537.6109175257006
3771.377,0.4956696960542906,1528.0445467208654
3772.2466,0.4958795231094135,1874.789712637141
3773.1145,0.4965444662629227,1743.8728092003291
3773.9824,0.4980882683226122,1508.2305423937776
3774.8528,0.5001090670586672,1536.1026027425933
3775.721,0.5014780981960588,1353.5164110703295
3776.5918,0.5011611913234724,1442.3761313862954
3777.4604,0.4989509362863368,1492.3705977019906
3778.3315,0.4955947834845538,2066.1056227134336
3779.201,0.4924348668839485,1758.1925084593959
3780.0703,0.49081480580502546,1679.815507730977
3780.942,0.4916119753911254,1673.1813898009912
3781.8118,0.49483528585539005,1896.0844159032686
3782.6838,0.4996107062240198,1778.0850295833818
3783.554,0.5046215782887955,1197.42498291427
3784.4265,0.5088929765094764,2038.6866068068796
3785.297,0.5120248262472108,1899.7653445098617
3786.168,0.5139921621713954,2967.1043266006427
3787.041,0.514647898879916,1512.909087857395
3787.912,0.5136640461779327,2071.9154033389655
3788.7856,0.5109178588207034,1550.7798243606376
3789.6572,0.5069205009284155,1735.7448288506223
3790.531,0.5027452664166271,1473.2231306161893
3791.403,0.4995820727755436,2058.967781315251
3792.2754,0.4980213338871982,1879.96238802212
3793.15,0.49774863766652955,1633.274414461109
3794.0225,0.4977617964299752,1366.115088166772
3794.8972,0.4970454885668511,1647.4116637005852
3795.7703,0.49523821604275614,2167.2020175023695
3796.6455,0.49278556731701395,1654.554888941317
3797.519,0.49059135562008865,1686.0751987799704
3798.3926,0.48941241510212957,1946.312244816214
3799.2686,0.48951532665912006,1982.5221346950375
3800.1426,0.4906426216331871,1913.9618288790537
3801.0188,0.49223011472368966,2482.838386001935
3801.8933,0.49366488687191995,2250.118512469079
3802.77,0.4945021028386329,2799.8935966215436
3803.6448,0.49452793312897103,1531.3434478006511
3804.522,0.4937886984595949,1332.6257563833417
3805.3972,0.4925735746127848,3342.7515375193198
3806.2727,0.4913363197361804,1180.635711742775
3807.1504,0.4905688676905746,1442.5097633377718
3808.0261,0.49065442677079674,1875.4886168094777
3808.9043,0.49172617817780273,2299.9331965872343
3809.7805,0.49356373966207734,1745.4505719713125
3810.659,0.4956087882915375,1598.8770607405472
3811.5356,0.49715270658497024,1989.9547304292619
3812.4126,0.4977888359518122,1868.5573035101659
3813.2917,0.4977176617803754,1973.7909183168913
3814.169,0.49761441584461924,2055.277915240373
3815.0483,0.4980527653897155,2570.117499881049
3815.926,0.49902548890292836,2739.006545077864
3816.806,0.5000446463396091,2046.9424260224505
3817.684,0.5006472008499344,1674.2715070832203
3818.5623,0.5007914207889806,1485.0774963504941
3819.4429,0.5007680476340963,2032.402628873389
3820.3215,0.5008563581559381,1957.8809501551486
3821.2024,0.5011000341204831,1406.2488772272302
3822.0815,0.5013765010535224,1581.231780032384
3822.963,0.5016194586177765,1791.1829406987665
3823.8423,0.501913006449235,1653.9962375629589
3824.722,0.5023558043177395,1378.7356909133184
3825.604,0.5028299619708635,2043.0524274034146
3826.4841,0.5029556939158045,2093.7707374633574
3827.3665,0.5023723644205516,1640.4750277184191
3828.2468,0.5011221743739669,1634.5717456329526
3829.1296,0.4997341411742322,1831.7903206673657
3830.0105,0.49885781507271926,2015.2262170537042
3830.8916,0.49864987152621143,2057.66144415948
3831.7751,0.4985506902231176,1745.540915996609
3832.6565,0.49768909593724475,2024.4273208092006
3833.5403,0.4956193944025859,2084.8780890634303
3834.4224,0.49276301657460364,1910.8636938964894
3835.3064,0.4900990818333351,2308.5344651252512
3836.1887,0.48846960230298786,1723.090467022817
3837.0713,0.4879778159833609,1586.995878012051
3837.956,0.4880685550100909,2231.992067631475
3838.839,0.48808401098052684,1809.0337278806742
3839.7244,0.4877841668567115,1801.8253383801693
3840.6077,0.48737473264977277,2436.479492860157
3841.4932,0.48714752601056105,1734.759716122261
3842.377,0.4872322440633409,1988.1224189097504
3843.261,0.4876744388284077,2117.9376708179934
3844.1472,0.4886135055974846,1652.0170907011973
3845.0315,0.4902309914469179,1950.687717182838
3845.9182,0.49257912835341394,2737.004054144554
3846.803,0.4954903610995052,1822.9246242281904
3847.69,0.4987690054230911,2511.2585172898293
3848.5752,0.5022841351155481,2123.5367446136197
3849.4604,0.5059872367910768,1767.4006213798662
3850.3481,0.5097397390480997,2412.5447802379813
3851.234,0.5131454479187135,1662.7417166376579
3852.122,0.5156204866132639,1454.1972095491813
3853.0083,0.5165426153809061,1737.4233915667069
3853.8967,0.5156442309257978,1622.5185522632987
3854.7832,0.5132500352383854,1795.137312627323
3855.6702,0.5101923998194878,1935.7357999465512
3856.559,0.507427291551338,1431.0848765915434
3857.4463,0.5056375403210798,1905.598732672336
3858.336,0.5050408347165087,1387.3625754780708
3859.2234,0.5055204594452047,1682.2328757178875
3860.1135,0.5067395909672884,2260.5518888475444
3861.0015,0.5081448749254517,1888.7782879223807
3861.8896,0.5090387353074088,1471.0418118003156
3862.7803,0.5088422600577891,1447.9314952319446
3863.6687,0.5074462313500019,1933.0691978908824
3864.5598,0.5052328764405075,1700.2620600081264
3865.4487,0.5027259226893551,1851.3826338588149
3866.34,0.5001341675858264,1807.716332166382
3867.2297,0.49737985443375266,1760.114313734813
3868.1213,0.4944351802183745,1613.7583050759226
3869.0112,0.491744768192583,1643.5769638305264
3869.9014,0.4901437019650181,2192.122587750821
3870.7937,0.490422213327897,2610.586239842455
3871.684,0.49280085824132214,2108.276104584336
3872.577,0.4968000034219246,1774.0618306469125
3873.4678,0.5014953222459868,1755.1774977477653
3874.361,0.5060203107718807,1892.7449435910437
3875.2524,0.5096937904536286,1211.527442544625
3876.1438,0.5120425070934203,2200.123009846693
3877.0376,0.5126943324766275,1822.5187751327194
3877.9297,0.5115011864570045,2580.1486074895342
3878.8237,0.5087159850666904,2039.8005019134182
3879.716,0.5049962350279545,1449.975471318125
3880.6108,0.5011092319815442,2751.5210856609833
3881.5037,0.49765246824074194,1942.800624245897
3882.3965,0.49476750331386493,1784.7793635344883
3883.2917,0.4921946877669352,1855.1937191815816
3884.185,0.4895508293368173,1806.9262133966593
3885.0808,0.48661350345811055,1961.345653280857
3885.9746,0.48355246022192855,1867.0759862933041
3886.8706,0.48081870195159077,2040.2902703283717
3887.765,0.479043858431135,2330.3309949297013
3888.6592,0.47892574000748767,2216.1129061991646
3889.556,0.48127221241755225,1710.0324186772045
3890.4507,0.4868289305044842,2683.5875844293655
3891.348,0.49580704728286884,2232.6934691833794
3892.243,0.5069787479443557,2068.365207458215
3893.1406,0.5175426736371899,1455.14387389382
3894.0361,0.5239399964458213,2043.7543499100072
3894.932,0.5241615754850757,2007.8495438106577
3895.83,0.5190699387356719,2166.772078475914
3896.7263,0.5118278295888635,1690.0088231190869
3897.625,0.5055522224268594,2510.953791870804
3898.5215,0.501698180776404,1479.6468207519968
3899.4207,0.4999746415452106,1807.6804075271182
3900.3176,0.499511687795706,2697.1915219226385
3901.2148,0.49965630636773817,1590.10581896073
3902.1145,0.5001606588308761,2243.9400009309106
3903.0122,0.5010135217425123,1433.6306005208214
3903.912,0.5022968530311719,1792.227111188877
3904.8103,0.5040530368150901,1829.2436838425085
3905.7107,0.5062268185979025,1824.0374737109644
3906.6094,0.5086313220971724,1348.6440773409768
3907.508,0.5110040744284593,1673.154550288476
3908.409,0.512961200321761,2013.2942494932395
3909.308,0.5139466883553703,2308.0794908449116
3910.2097,0.5134057830494545,1571.7639813173028
3911.1091,0.5111661266215697,1771.2637192122863
3912.011,0.5077835707871015,2126.9049429513857
3912.9111,0.5044991785847412,1869.2595688720087
3913.8113,0.5025825619251395,2288.77728104652
3914.7136,0.502648748739321,2512.665551484775
3915.6143,0.504382620650744,1572.6063993646553
3916.517,0.5068911558894722,1418.360813876641
3917.4182,0.5092880206114682,1466.3558577630997
3918.3215,0.5110976301755287,1503.4100774064336
3919.223,0.5121817679609351,1900.2789236150252
3920.1245,0.5125874259803106,1625.2091542477358
3921.0286,0.512493388573406,1917.8068334344694
3921.9307,0.5122599469793654,1725.8152599028876
3922.835,0.5122649748279825,1592.8064650957378
3923.7373,0.5125609424488164,1321.8874045131595
3924.642,0.512769027669673,1447.9436629793554
3925.5452,0.5124617650710116,1710.0326696715722
3926.448,0.5116880672696857,1241.1116851276315
3927.3535,0.5110300647850083,1498.7409259207923
3928.257,0.511125451515146,1273.7020483454003
