wavl,flux,ivar
3566.9744,0.5427346409399673,2336.3669474988433
3567.795,0.5399940336875353,3419.975556384904
3568.6177,0.5365842967094435,2967.423947520988
3569.4385,0.5331153666255419,3522.151557708678
3570.2617,0.530164245857455,2867.4265795395863
3571.083,0.5280664526128532,2878.4920128034323
3571.9065,0.5267177914111683,3291.889974909045
3572.7283,0.5255648194169932,2982.9228389216682
3573.55,0.5235486163775294,3035.8016016062543
3574.374,0.5193052782532884,2544.714863344374
3575.1963,0.5120126372950979,4088.4474142433296
3576.0208,0.5025927221364361,2780.661623329494
3576.8435,0.4944736262589905,3366.1845654697336
3577.6682,0.492108871533851,2918.2908465687883
3578.4915,0.49809776900651864,2762.840775083826
3579.3145,0.5109224492738438,2547.912374240153
3580.14,0.5258030809544879,2879.544991509685
3580.9636,0.5376035511340184,3455.3092920099352
3581.7893,0.5438447999786648,3113.1753823529934
3582.6133,0.5450426883883017,3038.9126541177234
3583.4395,0.543455541068728,3431.5349758241837
3584.264,0.5412934832262887,3465.793934443779
3585.0884,0.5397120105143602,2917.4167659286795
3585.915,0.5387923965745662,3319.2413173167333
3586.74,0.5380884052024919,2595.8540480546103
3587.5671,0.5371642443351271,3338.0609849417665
3588.3923,0.5358412666758193,2182.9204166578374
3589.22,0.534100463209455,3104.254081690136
3590.0457,0.5319770180325335,3001.362217412631
3590.8716,0.5295492777430105,2175.6553880058646
3591.6995,0.5270935602991671,3070.831856550741
3592.526,0.5251202000006457,2788.4700344030366
3593.3542,0.5240707037804717,3668.4870276965867
3594.181,0.523983685464073,2944.968873252496
3595.0098,0.5244083101897646,2853.06718949087
3595.8367,0.524724019246194,3014.5069991967894
3596.6638,0.5245130528985767,3681.35179105016
3597.4934,0.5236544129934189,3192.999801128258
3598.3208,0.5222314368436297,3423.3711142701886
3599.1506,0.5204389989700907,2877.0196679123233
3599.9788,0.5186207313120695,3283.4101789899637
3600.8088,0.5171903271030045,3593.6026848492866
3601.6372,0.5165103754902893,3282.56216725447
3602.4678,0.5167368483359671,3745.8502500682666
3603.2964,0.5178103316328333,3525.368022124748
3604.1252,0.5195156435693832,3086.052325872485
3604.9565,0.521529851297262,4066.517682127226
3605.786,0.5234142324682943,2998.685011125761
3606.6172,0.5247223842996447,2909.5763202570383
3607.447,0.5251561328139608,2551.188142321111
3608.2788,0.5247856542746184,2919.7782539719633
3609.109,0.5240373354982738,2610.8085579657236
3609.9392,0.5234079612524408,4203.5712672032
3610.7717,0.5231289528026917,2868.0809482871878
3611.6023,0.5230845145695103,3734.314884973218
3612.435,0.5230251631529855,3494.037059112785
3613.266,0.5228436511189792,2907.7487474913587
3614.0994,0.5226708832085212,3254.7439916279627
3614.9307,0.5227891950586099,3213.5148335953163
3615.7625,0.5234590522327996,2406.625976421829
3616.5962,0.5247527635989854,3948.1435921740417
3617.4282,0.5264307277195206,3426.792182355654
3618.2625,0.5280052501253072,2024.6600005721202
3619.0947,0.5289492922113812,2912.5111132688694
3619.9292,0.529025532528579,3346.3931839710635
3620.762,0.5284139923396439,2814.968370814259
3621.595,0.5275747210016779,2937.958105072425
3622.4302,0.526922774660788,3016.8025832119188
3623.2634,0.5265849337295128,3254.2807866449125
3624.0989,0.5263818138632859,3198.287678973566
3624.9326,0.5260168541703549,3572.2093303160327
3625.7686,0.525260091284508,2876.5202070183464
3626.6028,0.5240638495380966,1654.9296209701943
3627.437,0.522573360530613,3271.5064205012022
3628.2734,0.5210253518289328,3341.8464206567337
3629.1082,0.5195288241026617,3327.8855005556634
3629.945,0.5178786421974185,3283.666275315767
3630.78,0.5157582439509043,2421.4517988396856
3631.6174,0.5131047216077576,3368.5032708238446
3632.453,0.5103300503604876,3317.744273528287
3633.2883,0.5079804907045669,2950.7620219490223
3634.1262,0.506291565768031,3283.8066281263386
3634.9622,0.5050415515191414,3796.709563612363
3635.8005,0.5037925347272987,3143.8519204869976
3636.637,0.5023283524364752,4189.364778633944
3637.4756,0.5008188172160873,2854.766694562483
3638.3123,0.4997111568882239,3508.6294100268306
3639.1492,0.4993592344017937,3256.0641133263675
3639.9885,0.4997260119978068,3706.6070795419405
3640.826,0.5003306887680097,3296.964537128142
3641.6653,0.500574725892283,3160.3884720860983
3642.5032,0.5001748119763213,3162.1051001506175
3643.343,0.49931024906258376,3499.918519328311
3644.1812,0.49834728165796394,3367.6940684156375
3645.0195,0.4974487841148295,3515.8416118787068
3645.86,0.4965099578480567,3011.388653958894
3646.699,0.4954413808308858,3400.14734675552
3647.5398,0.4944540093878015,3207.178613344065
3648.379,0.49407289996680465,3444.0540375207584
3649.2202,0.49477554562846465,4156.153098315633
3650.0596,0.49656414093802975,4502.315649299964
3650.8994,0.4988370657969499,3516.632361562122
3651.7412,0.5006950081617709,3509.9379498258163
3652.5813,0.5014637290572092,2699.7111172880564
3653.4236,0.5010699072065155,2996.1445831189485
3654.2642,0.499976134583408,3311.3312158726885
3655.1067,0.4988456267203799,3785.76296193716
3655.9475,0.49821641572317743,3659.8898188582093
3656.7886,0.49830329598510964,3539.7805879491675
3657.6318,0.4989979910446,3806.922684780387
3658.4734,0.5000097494374746,3408.29968915764
3659.317,0.5011694596776186,4371.347890959085
3660.1587,0.5026369164386202,2675.226061214827
3661.003,0.5047915001696972,3798.981274144132
3661.845,0.5077464819947121,2915.1166480697684
3662.6875,0.5110807365347433,4051.227548813626
3663.532,0.5140193129112941,2661.813259231745
3664.3748,0.515928762632287,3486.6599731324
3665.2197,0.5166837174424911,3718.4503079531687
3666.063,0.5165813114137368,2640.2939793707724
3666.9084,0.5161109503541931,2853.349214046487
3667.752,0.5157207749866525,3978.6883146230157
3668.5977,0.5156339305873822,3283.2229756202278
3669.4417,0.5157268234727059,3060.201410334503
3670.286,0.5155441248418297,2537.2732886905164
3671.132,0.5145539939470329,2634.4161606293274
3671.9768,0.5125607305320525,3084.113186729204
3672.8235,0.5099287012951814,3150.0157086053086
3673.6685,0.5074377536355665,3425.0401366863457
3674.5156,0.5057610279846432,3608.4189197570795
3675.3608,0.5051129644335562,3644.9681215328933
3676.2063,0.5052145908793143,3077.1204758516888
3677.0542,0.505615893139481,2884.1131024538913
3677.9,0.5059743513740178,3053.2861136185174
3678.748,0.5061325083001154,3214.588132200134
3679.5945,0.5060263309729083,2380.566450151952
3680.4429,0.5056213178293754,3551.401318292748
3681.2896,0.5049192838994974,4328.761790815478
3682.1365,0.5039620868381386,3410.649550874319
3682.9856,0.502816098468565,3265.874333988896
3683.8328,0.5015918639632084,2967.292596920764
3684.6824,0.5004652593588085,4520.6055952425595
3685.53,0.49969246602799455,3045.8436622415393
3686.38,0.4994751383474964,3090.1615600635755
3687.2278,0.49981745350354034,4656.749659186344
3688.0762,0.5004380991260874,3591.0102642537263
3688.9265,0.5008299673213302,3369.826142220125
3689.7751,0.5004714331119481,2700.8437462586085
3690.626,0.4991673028047335,3594.1137001007005
3691.475,0.4973464143249036,2927.9468255634692
3692.3264,0.49599505724189286,3098.310865679927
3693.1758,0.49618443915712646,4462.155959494219
3694.0254,0.49838649655523865,3076.199625615511
3694.8772,0.5021770207150422,2992.4887586435725
3695.7273,0.5064601452433868,3443.4625786396236
3696.5793,0.5101743522111797,2873.3822378772
3697.43,0.512771351367746,2654.740078652445
3698.2825,0.5143785639056858,2481.1434179493217
3699.1333,0.515442825670895,5272.109202050744
3699.9841,0.5163058440465668,3310.2574423616425
3700.8374,0.5169426839261628,3246.9411615936365
3701.6887,0.5170582825071861,3153.4446165565887
3702.5425,0.5163751998311646,3075.5290875332253
3703.3943,0.5148188876401262,2965.71322716119
3704.2483,0.5125149762754185,2955.7083348936594
3705.1003,0.509772343545844,2765.146097740018
3705.9526,0.5070106172722834,3187.1770527351587
3706.8074,0.5046901089732329,3799.4466440077886
3707.66,0.5031681474309999,3491.4745600311403
3708.515,0.5025244466778863,3825.6268297841943
3709.3682,0.5025904278161368,3165.4938953417022
3710.2234,0.5030449131396408,4038.2657614334316
3711.0771,0.5035303733931762,3367.3958306698523
3711.9307,0.5036938183515743,3062.3194471975967
3712.7866,0.503175792752325,2784.393506957785
3713.6409,0.5016733983805587,3280.8989473844986
3714.4973,0.499113451982322,3693.746536490429
3715.3518,0.49589664905473385,3758.142113012662
3716.2085,0.4928528703810892,3654.0073599427
3717.0635,0.4909416632621131,3481.313103082339
3717.9185,0.49069514610107323,5218.790938358564
3718.776,0.4919921465727414,3006.3833715881115
3719.6313,0.49421891408549656,3052.763219410331
3720.489,0.49675265209192865,3056.8859956323176
3721.345,0.499297080176366,2537.0064112095984
3722.2031,0.5019646814080226,2884.4297832307584
3723.0593,0.5049334749432156,4609.1696337219455
3723.9158,0.5081114500561065,3782.1220431173315
3724.7747,0.5110094990640722,2805.604598800074
3725.6316,0.5130254312051072,2991.5443645507044
3726.4905,0.5139386305237252,3385.08062313923
3727.348,0.5140242722289349,3238.9025982924754
3728.2073,0.5137989860149068,3137.046438128522
3729.065,0.5136047027163406,3072.3015340840675
3729.9229,0.5134058243081399,3123.9454341987534
3730.783,0.5128862322238816,3629.6024493997224
3731.6414,0.5117195513071087,3074.664895110059
3732.5017,0.5098174391570113,2712.1472336785405
3733.3604,0.507451130571549,3602.8447118573417
3734.2214,0.5050861300409675,3368.30027599415
3735.0803,0.5031394624225736,3530.772453740499
3735.9417,0.5017164689172089,3529.97309674999
3736.8013,0.5006551843632012,4475.469691803608
3737.661,0.4996831390865501,3673.7937298750476
3738.5227,0.49863353035916147,2943.0638796303656
3739.3828,0.4975350207220041,3136.698468321415
3740.245,0.49650087724818454,3473.6684491355863
3741.1055,0.4955696737484772,3742.890415835819
3741.9683,0.4946436578142311,3630.4469236007326
3742.829,0.4937060653713789,3507.3595817941937
3743.69,0.4930158529044401,3359.2482858830695
3744.5532,0.4930173887967156,4916.809068549586
3745.4148,0.4939559729303014,3271.872198661834
3746.2786,0.49561582326418374,3197.918717200586
3747.1404,0.4974360458357609,3049.7809976283347
3748.0044,0.4989016088788179,3617.312373299399
3748.8667,0.49976341978729283,4145.698851913537
3749.729,0.5000602396343953,3011.571417403449
3750.5938,0.49997728391656143,3866.8622149561584
3751.4565,0.4997759698161136,3037.1026750380483
3752.3215,0.49980689793750377,3745.018085958195
3753.1848,0.5004925868110509,3422.968045428829
3754.0503,0.5021497497090182,3406.744955490797
3754.9138,0.5046990058017102,3554.0294908122505
3755.7776,0.5075984174317557,3180.659404078719
3756.6438,0.5100931208546203,2747.708138017525
3757.508,0.5116254684726003,2984.6389868904494
3758.3745,0.5121333919640644,3852.580390176621
3759.239,0.5119443294110999,3894.091623468975
3760.106,0.5115147151541402,3392.22541611923
3760.971,0.5112065335540521,3078.9789740713636
3761.8362,0.5112191000004298,2937.583988783429
3762.7036,0.5116000112491398,3084.10865372107
3763.5693,0.512182883909486,3681.2980954566424
3764.437,0.512525534755171,3046.459652376008
3765.3032,0.5120162662506358,2846.1860257869603
3766.1714,0.5102122992915855,3055.134008344713
3767.0378,0.5071792188111036,2730.221021994049
3767.9043,0.5034864789953452,3142.5579149948016
3768.7732,0.49989059125150503,3351.938700430829
3769.6401,0.49699488436586775,3620.4646551650308
3770.5095,0.49505175724046036,3855.431559135614
3771.377,0.4941441204026145,3670.5863602769114
3772.2466,0.4942923621536289,3428.9537055079827
3773.1145,0.49543956909867065,4281.767663722817
3773.9824,0.49731698312309747,2675.647141356738
3774.8528,0.49945013406395455,3324.506362348742
3775.721,0.5013236651876924,3052.795594998183
3776.5918,0.5026559564346729,3287.678587591691
3777.4604,0.5034878369397818,2630.5137439080563
3778.3315,0.504180842679551,3064.111646519416
3779.201,0.5052186879316221,4430.2481791222535
3780.0703,0.5069549070864517,3566.3353416860914
3780.942,0.5093961270827055,3076.0315224315486
3781.8118,0.5121489104866263,3493.9122408392827
3782.6838,0.5146265727047044,3046.5997139825718
3783.554,0.5162293301191067,2798.7291412787213
3784.4265,0.5165377128604552,2918.726151558984
3785.297,0.5153824948349692,2735.662041191615
3786.168,0.5129508844998267,3638.856644090994
3787.041,0.5098013156532933,4435.325887956683
3787.912,0.5067338256473652,3149.0090486645117
3788.7856,0.5044128197506169,3994.925675147846
3789.6572,0.5031516426943918,3074.427065235957
3790.531,0.502816071568356,3783.6903684415256
3791.403,0.5029733956981499,3781.5863677048037
3792.2754,0.5030673522697016,3709.2586803273107
3793.15,0.5026154006108042,3339.124875952423
3794.0225,0.5013663081830806,3048.4898999999823
3794.8972,0.49932356689406415,3328.045608272905
3795.7703,0.4966847386149615,3016.8941562495256
3796.6455,0.49371845129232755,3181.8826839483654
3797.519,0.4908021567607126,3576.584691547793
3798.3926,0.488385461071088,3437.953341326885
3799.2686,0.4869050393336546,3979.978415773051
3800.1426,0.4865767017586249,4278.5361606141505
3801.0188,0.4872161957325847,3162.237267615318
3801.8933,0.4883009265841562,3677.1968194230312
3802.77,0.4892159336622817,3138.9657701221477
3803.6448,0.48953845722908834,4943.556143767546
3804.522,0.4892837598755465,4995.490034476882
3805.3972,0.48895793293192336,5099.598565640637
3806.2727,0.4893431835460983,3595.2023212554363
3807.1504,0.49108447950918366,3681.3803853039603
3808.0261,0.49432514141107425,3357.000936138012
3808.9043,0.49873330366219376,3676.172983525127
3809.7805,0.5037081983531301,2723.5901070556447
3810.659,0.5087256953004247,2584.4657037670822
3811.5356,0.5133311587496068,2751.0864501411675
3812.4126,0.5171576997965649,3590.615086139135
3813.2917,0.5198503192299746,3096.525480807274
3814.169,0.5211674337894817,2708.2334699694015
3815.0483,0.5212037084230313,2196.4232193305756
3815.926,0.5203927629345905,3089.0522849530125
3816.806,0.5192755566004924,2701.3262577396395
3817.684,0.5182152713364516,3067.4014254064728
3818.5623,0.5173149114010891,2796.981777446268
3819.4429,0.5165629886351872,3092.4198562139854
3820.3215,0.5159322091765904,3776.6614383087713
3821.2024,0.515314306802355,2925.1466381315076
3822.0815,0.5144933422735402,3787.8920724989603
3822.963,0.513246878942503,2780.586798116111
3823.8423,0.5115402129595404,3025.1762981165293
3824.722,0.5095312225475718,3517.8851018712544
3825.604,0.5073680061786187,3419.6165502951976
3826.4841,0.5049442656497004,4027.2445651895364
3827.3665,0.5018135386553176,2912.3403491903555
3828.2468,0.4974942639070195,3103.5470326750656
3829.1296,0.49174083320766565,2996.858604367264
3830.0105,0.4847726187314632,4191.418044033276
3830.8916,0.47707768274248685,4452.304254691502
3831.7751,0.4692677855171322,3357.971622575624
3832.6565,0.4620120733077046,4162.8570508216
3833.5403,0.455794425031866,4567.721524715657
3834.4224,0.4509610963926429,4860.564867953835
3835.3064,0.44756774816349754,4294.013860966987
3836.1887,0.4455414204299525,5198.073480193602
3837.0713,0.44478562749389394,3601.7969563865577
3837.956,0.445366919051687,4714.897071063927
3838.839,0.4475324537845568,3771.901192974754
3839.7244,0.4515774706763986,4562.092527091929
3840.6077,0.4575390541671513,4739.392456878834
3841.4932,0.4651052589471054,4258.654842347187
3842.377,0.47359177789995444,4136.519920582249
3843.261,0.4823138978213871,2767.6954007408667
3844.1472,0.49075759322214635,3327.897920730139
3845.0315,0.4985625354352809,3895.4314902844635
3845.9182,0.5056042623913535,4139.307527413954
3846.803,0.5118077691929139,3975.1332388451933
3847.69,0.5172638955229708,3203.5280340433796
3848.5752,0.5220558069574046,2487.5080145509414
3849.4604,0.5262957586886196,3084.170761764397
3850.3481,0.5301079308054832,3142.444799894884
3851.234,0.5336584255132483,2609.1867474710675
3852.122,0.53719025311146,2958.8609326333194
3853.0083,0.5407691316096466,2929.1544292959607
3853.8967,0.5441564815494621,2794.095581284721
3854.7832,0.546782126899245,2741.23896206072
3855.6702,0.5481495060652445,2803.4111834750147
3856.559,0.5482073048941174,3019.8765697039253
3857.4463,0.5474788152733476,3023.8442189262246
3858.336,0.5467783403410825,2933.6285182310485
3859.2234,0.5467586292265104,2972.26038098134
3860.1135,0.5475829512238221,2858.401829331792
3861.0015,0.5489115268351612,2605.523347639164
3861.8896,0.5501570891285661,2807.8792789103036
3862.7803,0.5507855038899568,3295.8465209453466
3863.6687,0.5505141571661996,2444.691313170422
3864.5598,0.5493630809408327,2607.432728929681
3865.4487,0.5475892259142302,3175.681157296386
3866.34,0.5455346930916637,3033.5948968572216
3867.2297,0.5435037946511166,3484.826934501503
3868.1213,0.5415731467721981,2991.653472990025
3869.0112,0.5395381826195893,3471.9064801747422
3869.9014,0.5369730481199213,2739.547056071428
3870.7937,0.5335176178548584,3117.811275454529
3871.684,0.5291984994399679,3147.082389449698
3872.577,0.5244237944048178,3226.0201485082025
3873.4678,0.5198250843992342,2826.572058407478
3874.361,0.5158275542731919,3455.0392352215
3875.2524,0.5125139394173053,2702.124417044775
3876.1438,0.5095435047471835,3534.643826774622
3877.0376,0.5063556778940753,3199.2960484613413
3877.9297,0.5024737149525821,2964.105026015255
3878.8237,0.4977023441440476,2771.760531489593
3879.716,0.49224071376877987,3641.2323396383117
3880.6108,0.4863933269967823,3848.0329522311836
3881.5037,0.4803715349949404,3172.087345820621
3882.3965,0.47404757397340797,3546.3510876255605
3883.2917,0.4670588956471793,4450.4372980450635
3884.185,0.4590739059673832,3682.5665001976595
3885.0808,0.4498871837107255,4617.820440833426
3885.9746,0.43972955738069136,4267.630363553307
3886.8706,0.42910138032783646,5238.008625524044
3887.765,0.418818623327066,4751.703764657947
3888.6592,0.4096754766358031,4189.571204470209
3889.556,0.40242507918893683,6250.060430470496
3890.4507,0.3978406862310585,5455.844971526719
3891.348,0.39657886747274324,5518.533158375356
3892.243,0.3990810323766403,6396.08938406522
3893.1406,0.40528285333824327,4989.98568511904
3894.0361,0.4144136254879173,4368.443092659532
3894.932,0.4252593819945315,4026.3872816417934
3895.83,0.4365545643360089,4202.062094806791
3896.7263,0.44730555504734737,4827.161893803888
3897.625,0.45716734206016146,3894.464297125481
3898.5215,0.46615352294676093,4289.0372668443115
3899.4207,0.4746385830393804,3314.206748159402
3900.3176,0.4829682036839849,4267.9631976037535
3901.2148,0.4914653697499128,2918.4991787431704
3902.1145,0.5002369297441185,2789.6009490885494
3903.0122,0.5090673037152038,2761.0221640136633
3903.912,0.5176469493398463,3147.3114015091396
3904.8103,0.5255993638973044,3553.6070920556463
3905.7107,0.5328250202386118,2463.3956337832633
3906.6094,0.5394399081256398,3466.1041253306066
3907.508,0.5457780769565667,3205.0979327055456
3908.409,0.5521442772078877,2789.520253583209
3909.308,0.5586539472858268,2227.1123529518804
3910.2097,0.5653656765844451,2952.1098945390977
3911.1091,0.5722258564188926,3476.8365923267806
3912.011,0.579206701763729,2502.7910819541476
3912.9111,0.5861401671353862,3036.7330119601597
3913.8113,0.5928213049396213,2328.070622741271
3914.7136,0.5989731151600044,2478.151708486386
3915.6143,0.6042575550095998,2002.154750007215
3916.517,0.6085115174880088,2146.811882790394
3917.4182,0.6118237390630588,2184.1657670122313
3918.3215,0.6146147835878312,2281.1028099103723
3919.223,0.6173385303491636,2387.157526656048
3920.1245,0.620211895347867,2490.7107408762095
3921.0286,0.6230497857311437,2146.472417497196
3921.9307,0.6253780587782404,2188.4144968064547
3922.835,0.6267762605863454,2349.4287629736905
3923.7373,0.6270905350398871,2154.09806452961
3924.642,0.6265270276021017,2119.627446295989
3925.5452,0.625531722517925,1957.9226695622426
3926.448,0.6245772325337272,1924.843265214142
3927.3535,0.6239618246786299,1978.7428995848647
3928.257,0.6237159310503383,2142.0413981747374
3929.1628,0.6236398950898898,2372.1249775438555
3930.0667,0.6234825927302451,2140.6514413785967
3930.9731,0.6231213972043576,2169.807026880683
