wavl,flux,ivar
3566.9744,0.6426251055587896,394.3815113453569
3567.795,0.6413354882728896,503.01508832979573
3568.6177,0.6392666471438264,429.26261774320966
3569.4385,0.6365517186095927,724.6334162604352
3570.2617,0.633982359698955,606.8719188510441
3571.083,0.6325820380814839,568.2275293342279
3571.9065,0.6329504979911135,502.3767695804017
3572.7283,0.6350607104311099,519.9857243292511
3573.55,0.6387166358893682,365.7945991887379
3574.374,0.6447646483551491,456.80302742105584
3575.1963,0.6565208587810504,378.57398667292017
3576.0208,0.6802869226354589,567.0052221866591
3576.8435,0.7221117247632711,487.4578114848462
3577.6682,0.7815614431421565,445.44051566292586
3578.4915,0.8450552628233433,386.2397979152589
3579.3145,0.8892465659962501,598.9568592075573
3580.14,0.8937946032307346,522.4499997803432
3580.9636,0.8556879013562134,464.9761984423462
3581.7893,0.7914080709524113,511.636618461372
3582.6133,0.7254899129110199,442.4800530269912
3583.4395,0.6751360805354507,936.5752069645297
3584.264,0.645584236989267,475.74827716299677
3585.0884,0.6327878722053153,545.8611614908274
3585.915,0.6300168625880141,632.7124550685367
3586.74,0.6314508220207032,523.616946286302
3587.5671,0.6331824769829756,562.1252349032288
3588.3923,0.6331629532582027,409.6210620210582
3589.22,0.6309396309502723,362.2615765856061
3590.0457,0.6272173180546917,479.5412747714326
3590.8716,0.6231542121337286,489.57543575868726
3591.6995,0.6197280211738369,609.3482009664517
3592.526,0.6174491902125766,613.7633449912012
3593.3542,0.6163540042669042,445.37249291114966
3594.181,0.6162003523556207,455.22610292305245
3595.0098,0.6165958109339064,574.3708350128032
3595.8367,0.617197612883912,369.18481098998024
3596.6638,0.6179199932878593,545.9677484559329
3597.4934,0.6189214678657479,711.8129215321837
3598.3208,0.6202865523769723,605.5571177135481
3599.1506,0.6217359994985647,752.1463389914398
3599.9788,0.6226439025592361,396.85627802993156
3600.8088,0.6224627787039679,371.5452160627164
3601.6372,0.6211582306349697,696.4197875061665
3602.4678,0.6194062254468646,551.2486432257242
3603.2964,0.6184531257040857,550.2914757572363
3604.1252,0.6195602890052755,379.9213622072899
3604.9565,0.623280926135009,816.1298444106283
3605.786,0.6288471755533369,507.76242691451796
3606.6172,0.6344541149037276,357.841778095999
3607.447,0.6382207335453208,494.11330521947804
3608.2788,0.6393262859903085,547.1386144881627
3609.109,0.6380749202166361,585.4402671634025
3609.9392,0.6351610935716367,502.2610765344802
3610.7717,0.6310272614552963,586.4805422991777
3611.6023,0.6260912175467822,606.1702742024409
3612.435,0.6211675273996218,510.29023478910676
3613.266,0.6175043394479414,487.94011532846315
3614.0994,0.6159903991993843,465.2959965244033
3614.9307,0.6165593469716651,484.48249213155475
3615.7625,0.6182082159068636,559.7986789746126
3616.5962,0.6196957180314582,568.0975250218302
3617.4282,0.6202389172797007,403.36297284109594
3618.2625,0.6198058480093421,849.2140995509249
3619.0947,0.6188800028814136,661.5191423418529
3619.9292,0.6179895850246202,477.0879617997745
3620.762,0.6173450099358414,575.5703632517038
3621.595,0.6167379955719795,440.48137170392056
3622.4302,0.6157404979168776,535.2457371096034
3623.2634,0.6140458240640808,454.3488150345638
3624.0989,0.6117362879761009,534.4538270304647
3624.9326,0.6093676949906764,474.14221397950627
3625.7686,0.6076425680677614,526.6584564786878
3626.6028,0.6069624026309199,556.9934305358936
3627.437,0.6071113044267286,211.63843814359413
3628.2734,0.6074684268755107,587.8610605835622
3629.1082,0.6074817324683991,492.8764650926944
3629.945,0.6069603368051573,658.6918908997521
3630.78,0.6059554275004903,396.40117871979743
3631.6174,0.6045042877810032,402.9552873781363
3632.453,0.6026660712921514,506.3502396287285
3633.2883,0.6007434891805254,606.5596290015617
3634.1262,0.5993504384774773,462.7114853041918
3634.9622,0.5990320720110354,449.37889819056466
3635.8005,0.5996996815934241,392.2823457430938
3636.637,0.6005339335815593,558.3360191742709
3637.4756,0.6005110329600342,787.5882905157343
3638.3123,0.599080790244065,565.4430958838282
3639.1492,0.5964222871357182,599.8203047523331
3639.9885,0.593149094772072,533.3281150928699
3640.826,0.5899008876757696,714.4707178473386
3641.6653,0.5870604742467906,779.9669331097116
3642.5032,0.5848663916320755,800.4370491846474
3643.343,0.5834609648891513,643.5416010431028
3644.1812,0.5828310189681702,632.5446825500728
3645.0195,0.5825835145855617,608.0365258742873
3645.86,0.5819692532756099,512.2766540113096
3646.699,0.5802506723854209,564.1055917557691
3647.5398,0.5771494622908603,676.2521352533963
3648.379,0.5730846872069343,721.8913513781831
3649.2202,0.5689820194038995,619.4566750599821
3650.0596,0.5659740149118516,454.41931857505267
3650.8994,0.5648575876418561,732.7711590147297
3651.7412,0.5657241707109048,590.8663615679071
3652.5813,0.5678221153431328,482.07953908603787
3653.4236,0.5699233716506059,529.8086457098823
3654.2642,0.5709047035175383,470.424438603637
3655.1067,0.570215964295293,535.0847566972565
3655.9475,0.5678979312447865,382.83788752714986
3656.7886,0.564365923614021,539.0159284795475
3657.6318,0.5602695706330997,908.6493821629522
3658.4734,0.5565229900048458,588.6229378526106
3659.317,0.554113083417953,929.2507160674124
3660.1587,0.5538100507511157,541.920041043439
3661.003,0.5558247116174811,624.0573759865713
3661.845,0.5597953324407837,493.339982712872
3662.6875,0.5650405435840689,949.7503339745098
3663.532,0.5707915456614481,636.1420067677221
3664.3748,0.5763457674528272,568.8939083287767
3665.2197,0.5812938424875855,701.1261625146041
3666.063,0.5854300542538518,672.2138395485161
3666.9084,0.5887172303855865,624.358989293357
3667.752,0.5911193020803138,412.15335741361224
3668.5977,0.5926933081687957,748.6075712755736
3669.4417,0.5935589897429102,447.7290000501415
3670.286,0.5938361221921427,538.2471537709354
3671.132,0.5935529380583497,499.6673417826634
3671.9768,0.5927310325018037,802.6845296762425
3672.8235,0.5914803715777469,588.3501465558297
3673.6685,0.5899440342589843,761.8857313161227
3674.5156,0.5881332764927006,507.37059983381164
3675.3608,0.5860012590425391,608.4507693827056
3676.2063,0.583630133463417,646.3045881328259
3677.0542,0.5813033129343683,568.3507811898381
3677.9,0.5792894489470338,490.38255471448656
3678.748,0.5775570234087899,720.7619615712069
3679.5945,0.5758943217486175,599.538243197378
3680.4429,0.5741692940632697,563.0220468360322
3681.2896,0.5724912447616373,849.227489240561
3682.1365,0.5709886089468217,473.8042634014206
3682.9856,0.5695534061562106,398.5929243443143
3683.8328,0.5678556248027485,513.0617154125414
3684.6824,0.5656469807852488,803.3126615147087
3685.53,0.5631646979335396,1100.1226181281502
3686.38,0.5611189737715975,534.2674667118318
3687.2278,0.5602976915014374,625.1917476450775
3688.0762,0.5609188184699732,629.6758497335774
3688.9265,0.5623930217889769,542.6967569470609
3689.7751,0.5636736511668813,751.5729838955556
3690.626,0.5640354833577713,550.7054091297335
3691.475,0.5636284080643712,742.8906692916523
3692.3264,0.5634659500086083,797.6925065022783
3693.1758,0.564841069406117,659.2630716645815
3694.0254,0.5685218301395899,617.7454502747482
3694.8772,0.5741675735867476,818.4091758440011
3695.7273,0.580208867158517,772.7684946469701
3696.5793,0.5845671582815299,595.5938482121489
3697.43,0.5856472332048771,434.3622857506472
3698.2825,0.5832463701020179,624.4334923534676
3699.1333,0.5785302675458137,713.1840006385942
3699.9841,0.5731623750767443,671.1096749374858
3700.8374,0.5683545163701732,547.9994161072252
3701.6887,0.5645679322166494,783.2900121350418
3702.5425,0.561726407236655,521.5823371294599
3703.3943,0.5597672157784523,558.5776971603515
3704.2483,0.5587809859893756,924.28914617789
3705.1003,0.558865250297133,652.2151349388437
3705.9526,0.5597482126706775,675.426319018756
3706.8074,0.5606237400572655,643.8677023084265
3707.66,0.5603775614678971,638.557133041627
3708.515,0.5582421135688845,518.1871377141699
3709.3682,0.5545228337237474,449.67775527109956
3710.2234,0.5507510512443097,573.3760212118716
3711.0771,0.5489825132994275,603.1622080609736
3711.9307,0.5504295633724213,802.9354010831946
3712.7866,0.5546483332589324,356.36317171576985
3713.6409,0.5597687660891174,732.9096124054972
3714.4973,0.5637304243675934,567.6800155321328
3715.3518,0.5653896865525727,720.0737269184906
3716.2085,0.5650490487247839,431.2641479169669
3717.0635,0.5639871518887186,661.3704095691234
3717.9185,0.563499290105823,724.9359020066794
3718.776,0.5641127607723986,831.9697048837438
3719.6313,0.5654788944185493,504.85111331137296
3720.489,0.5668824787218807,664.1599770161052
3721.345,0.5678147932487637,563.9779607383534
3722.2031,0.568286564221527,606.1107387198488
3723.0593,0.568747184997703,615.4264886023884
3723.9158,0.569871867871582,766.6527697850814
3724.7747,0.5724473629049248,442.3538005787887
3725.6316,0.5773005194127855,738.126759542919
3726.4905,0.5849198631432184,549.6143799284326
3727.348,0.5943384445876057,979.3704590342899
3728.2073,0.6025808619567494,735.9608190753426
3729.065,0.6056951749599034,777.231840561116
3729.9229,0.6016336475963346,585.1580966089194
3730.783,0.5920317851830158,678.3174891715312
3731.6414,0.5812803677780719,856.5215262618227
3732.5017,0.573303934225367,715.187317172417
3733.3604,0.569498699034168,579.3863161265755
3734.2214,0.5688052147815509,626.125360517767
3735.0803,0.56938974900181,560.8242281608295
3735.9417,0.5699071461714758,595.9866642645276
3736.8013,0.5698017887304899,444.9684890356893
3737.661,0.5690297909674091,693.6564852948567
3738.5227,0.5677515122585519,675.2916259445834
3739.3828,0.5662271202766356,613.530379090979
3740.245,0.5647694867811942,581.507988010442
3741.1055,0.563718542983374,509.9793057247862
3741.9683,0.5633012807578314,641.0986062772486
3742.829,0.5635334740732003,547.8341943671251
3743.69,0.5642163106953056,630.4297730147284
3744.5532,0.5650968307384087,473.2922563572665
3745.4148,0.5659922493052001,566.6485426975291
3746.2786,0.5667863852170268,596.034889665151
3747.1404,0.5673324639063424,498.4644084118422
3748.0044,0.5675278652273853,562.3894204351135
3748.8667,0.5675207699053302,935.3980807566641
3749.729,0.5678187099551496,729.7392165273133
3750.5938,0.5690093850806144,455.5681906675251
3751.4565,0.5711566730039274,648.8376990882803
3752.3215,0.5734149777010016,575.7187387213255
3753.1848,0.5742791110954913,424.7285575632712
3754.0503,0.57255451282541,553.7135555901131
3754.9138,0.5682843603784159,424.10000139894265
3755.7776,0.5628640709508409,409.0838632517135
3756.6438,0.5581990253520316,590.7315303611346
3757.508,0.5555475626716119,654.0018072352912
3758.3745,0.5548253950729483,684.4087127238628
3759.239,0.5550631676516113,591.5153580524576
3760.106,0.5553512471302384,750.4093118671354
3760.971,0.5554774536634871,696.1788163576526
3761.8362,0.5557733786850536,585.9487569724124
3762.7036,0.5565037407876245,786.8664091013221
3763.5693,0.5574638005983186,740.7706359216987
3764.437,0.5581377370111007,579.0964238084722
3765.3032,0.5581493983251633,577.5639817930577
3766.1714,0.5575734143256992,625.5695729463932
3767.0378,0.5568206584484579,577.2249862806356
3767.9043,0.5562517536404126,645.8493677839407
3768.7732,0.5559062427894048,614.0620107705968
3769.6401,0.5555738584987194,534.5530440194156
3770.5095,0.5551091709372487,758.6302466703676
3771.377,0.5546850336509247,520.6842704530642
3772.2466,0.5547009535179754,672.0615916541831
3773.1145,0.5554600140427477,540.0030868481061
3773.9824,0.5569310681275672,508.6325564656254
3774.8528,0.5588111020269825,452.4972077647008
3775.721,0.5607132230155866,567.7245943905303
3776.5918,0.5623539984729213,648.4675072460191
3777.4604,0.5635975292406366,676.9958732751307
3778.3315,0.564562700885327,461.4391350904558
3779.201,0.5655401724439714,897.1088716486194
3780.0703,0.5667024241406698,554.8082979312649
3780.942,0.5677370427777684,526.0104989027637
3781.8118,0.5678344811167135,517.5659537967671
3782.6838,0.5661967484064167,649.7001135855369
3783.554,0.5627097758912148,516.6661735856898
3784.4265,0.558199619609867,749.6228912093161
3785.297,0.5541209793010696,769.2438234412687
3786.168,0.5516813617223632,874.8146040126805
3787.041,0.5512516544107666,520.5689518220338
3787.912,0.5523246195613042,775.5888519745741
3788.7856,0.5540268305392722,482.9187600770455
3789.6572,0.5556813445404217,521.297542212938
3790.531,0.5570373542922041,597.2938586803217
3791.403,0.5580089870781453,757.9442692001481
3792.2754,0.5583611209444463,517.7561405194823
3793.15,0.557677425254154,593.9226488448469
3794.0225,0.555778087925031,527.3234058021669
3794.8972,0.5531297014159811,631.9932856157814
3795.7703,0.5507693605462073,578.7070596836016
3796.6455,0.5495657289654682,756.0507017564021
3797.519,0.5495792485688412,584.4259830847798
3798.3926,0.5500730741980118,536.6199034249134
3799.2686,0.5502210064829821,797.4550209130565
3800.1426,0.549728838913578,718.6431991503482
3801.0188,0.5488222223707208,910.8129700149227
3801.8933,0.5477728393718521,532.9388193752088
3802.77,0.5465573600312224,640.890864903691
3803.6448,0.5450448418712752,589.3721094923757
3804.522,0.5434231650772793,712.5307118345323
3805.3972,0.5424862791217426,687.4603300849836
3806.2727,0.5433504990338948,823.4905842334099
3807.1504,0.5467837489311551,592.5884804952465
3808.0261,0.5524798601315997,758.5030918781099
3808.9043,0.5590298767014685,443.57872220512564
3809.7805,0.5645031524885386,574.8228028647137
3810.659,0.5675902367682519,545.1434457690953
3811.5356,0.5681752933752161,614.5067612040593
3812.4126,0.5672486308342211,694.1673433882236
3813.2917,0.5660943002419689,380.9528553164883
3814.169,0.5654990323456408,511.2341033856639
3815.0483,0.5654132496037696,612.9327221409094
3815.926,0.5652330792278677,561.3027951325337
3816.806,0.5643586369313434,582.1445863037522
3817.684,0.562651603705798,534.5742751068032
3818.5623,0.5604775790095352,662.9523444640577
3819.4429,0.5583394338938545,531.0674845449389
3820.3215,0.5563802974218898,636.274920715892
3821.2024,0.5541242577805466,672.3527407611161
3822.0815,0.5508985971355886,869.7011282461244
3822.963,0.5465434707884277,624.1331387323085
3823.8423,0.5419096458646305,819.8886632553579
3824.722,0.5383925785518188,668.2911461473835
3825.604,0.5370118342301394,661.7569362371013
3826.4841,0.5377345602947521,707.0940046512706
3827.3665,0.5396422040901099,590.8763581922034
3828.2468,0.5416782799312666,564.8755646935265
3829.1296,0.5432114547548126,790.9736759241243
3830.0105,0.5439433544695147,523.1783538849741
3830.8916,0.5436259986721407,624.2518335332792
3831.7751,0.5420144887494706,490.6886761936734
3832.6565,0.5392012163792617,728.0729914013717
3833.5403,0.5357858791704265,735.1138494479371
3834.4224,0.5326968991286278,539.1572963274954
3835.3064,0.5306295323205045,725.6694408247807
3836.1887,0.5297560777490615,631.5883445701012
3837.0713,0.5298020861712341,459.2143681459597
3837.956,0.5304656880297905,724.887115215595
3838.839,0.5316764612419926,548.3986966941388
3839.7244,0.5335345929464872,533.0385571139324
3840.6077,0.5360743613505357,812.3875453617884
3841.4932,0.5392606097749444,640.4057401283552
3842.377,0.5430404719466588,786.4483940910243
3843.261,0.5473416197574421,1164.4345123294868
3844.1472,0.5518284905280455,569.2892781538256
3845.0315,0.5557585211777512,791.4820604094348
3845.9182,0.5582703402591739,686.851532283632
3846.803,0.5587238275881218,710.6318357035592
3847.69,0.5570560519876058,580.0273829512571
3848.5752,0.5538302093553263,575.7322858050081
3849.4604,0.5500413190357286,567.7904454965781
3850.3481,0.5468004438618315,615.962448230439
3851.234,0.5450191271350928,709.8672644095299
3852.122,0.545063601990932,657.1931864869175
3853.0083,0.5466417427254603,533.743524625796
3853.8967,0.5489362814482126,544.2194509708212
3854.7832,0.5510104896272218,502.71206557603176
3855.6702,0.5523159441100589,815.4707144557808
3856.559,0.5528794117347773,859.1862848679145
3857.4463,0.5531480980046228,583.5302556718106
3858.336,0.5536126947294261,760.4808719004114
3859.2234,0.5544334481224743,606.1915760143963
3860.1135,0.5553386574375423,566.2086215297999
3861.0015,0.5558485310386094,475.65707381158364
3861.8896,0.5556924556948496,541.9765659327172
3862.7803,0.5549642015505624,531.7692311456102
3863.6687,0.5539091912226041,481.1746376534697
3864.5598,0.5525990041792497,657.1215630398857
3865.4487,0.5509681453868529,630.7730686395233
3866.34,0.5490850693412253,712.3758790253464
3867.2297,0.5473415068295178,702.8135934035919
3868.1213,0.5462038194451925,600.622976492559
3869.0112,0.5458888270347306,757.2118963478199
3869.9014,0.546245412914791,697.7583878971798
3870.7937,0.5470047395607265,628.1716113957816
3871.684,0.54807256104648,635.5104426841884
3872.577,0.5495603908413061,594.7467782242509
3873.4678,0.551414747986653,584.9776985054457
3874.361,0.5530963692725259,530.1095711180282
3875.2524,0.5536817072536303,540.2855559143283
3876.1438,0.552510093921493,593.0191448124558
3877.0376,0.5496872365463918,666.3768181460727
3877.9297,0.5460542196071084,449.17315699873205
3878.8237,0.5425583651104819,577.9902751935787
3879.716,0.5397377930625429,764.4724055316899
3880.6108,0.5375362216430489,519.1029953191772
3881.5037,0.5356510407554365,731.2729946903461
3882.3965,0.5338895823615819,672.03836037366
3883.2917,0.5323441142603768,701.5876075995751
3884.185,0.531250478400034,704.1876797370385
3885.0808,0.5307102297090027,801.2551419085138
3885.9746,0.5305999697283968,484.5347288906298
3886.8706,0.5306415638771986,867.2080424426856
3887.765,0.5305541475903784,539.7268620721599
3888.6592,0.5301542608557106,632.1822053513091
3889.556,0.5294293649630677,922.1097026569488
3890.4507,0.5286479381897047,576.7612464281533
3891.348,0.528364114047857,669.6296080766049
3892.243,0.5291510855354952,628.0694608337213
3893.1406,0.5310829144380389,598.2988540488017
3894.0361,0.533394180385534,689.0913861984185
3894.932,0.5348122825631756,708.206409671223
3895.83,0.5343353357331799,864.8790320733322
3896.7263,0.5319359175779659,594.2607777944605
3897.625,0.528584699052649,864.8973618753479
3898.5215,0.5256812775261497,831.8379230714575
3899.4207,0.5242152576968917,539.6224485774325
3900.3176,0.5243711004786675,1115.85656838682
3901.2148,0.5256106797286547,769.4463083144756
3902.1145,0.5272236423972179,473.1536928242304
3903.0122,0.5288310327525209,661.9697191909806
3903.912,0.5305459702988771,803.3298592510168
3904.8103,0.5326240038901221,574.5727258955513
3905.7107,0.5350734640059155,589.2491187640444
3906.6094,0.5375055709532447,543.2507363600901
3907.508,0.5394336064236367,548.4054836621073
3908.409,0.5406118597751185,769.9274318695155
3909.308,0.5411884794689957,557.1963190615895
3910.2097,0.5416383181968873,790.4759035268993
3911.1091,0.5425385244931186,702.7378545867466
3912.011,0.5443278282395368,803.7472921791775
3912.9111,0.5470251099546345,753.5497793016281
3913.8113,0.5501378814933251,501.76087849836773
3914.7136,0.5528620504318971,425.7155844474854
3915.6143,0.5545290258106521,561.7577223817788
3916.517,0.5550334704077426,654.0309895930559
3917.4182,0.5547991217970741,517.0276745503352
3918.3215,0.5544223582369217,728.2840860046043
3919.223,0.5542832410522572,771.4305232840773
3920.1245,0.5544693112741857,695.3488088395487
3921.0286,0.5550579722787481,524.8454269009528
3921.9307,0.5564094592953861,628.5538740826896
3922.835,0.5590544186174968,639.629395143606
3923.7373,0.5630065007427335,622.5819875774846
3924.642,0.5671883636030346,641.0063255952604
3925.5452,0.5695962309559278,563.1975050786298
3926.448,0.5685830800003988,506.1370178996484
3927.3535,0.5640411066370086,682.5565060780003
3928.257,0.5575795621862721,541.5609104662866
3929.1628,0.5513112693779834,554.7398282280573
3930.0667,0.5465925303788477,544.1398801208518
3930.9731,0.5434046846580651,673.0074270258401
3931.8774,0.5409476854448775,564.2937478969394
3932.782,0.5385010329209972,948.7716240199177
3933.6887,0.5360504585429157,796.7348464058653
3934.5938,0.5341702091162179,862.5068869137106
3935.501,0.5333533626907354,705.1769836337934
