wavl,flux,ivar
3566.9744,1.1750620578801878,1242.63916895772
3567.795,1.175777660201339,1252.1468779338518
3568.6177,1.1758334396445858,1439.1928389353202
3569.4385,1.1756699209199486,1412.0643204678531
3570.2617,1.175480827493703,1268.0979695592532
3571.083,1.1750752002881157,1320.4329032638273
3571.9065,1.1741225527483103,1052.708793657013
3572.7283,1.1724846398030115,1292.505956300096
3573.55,1.1703224569113564,1336.959723310614
3574.374,1.1680470025177372,1297.7406187492181
3575.1963,1.1662455625299515,1231.4314281080851
3576.0208,1.1654540435172756,1182.5367779510505
3576.8435,1.1658481784181862,1505.563302273142
3577.6682,1.1670099559533094,1178.6881238808292
3578.4915,1.1681814989094272,1426.7452282041636
3579.3145,1.1689088663830374,1064.803337924689
3580.14,1.1694438368501987,1801.114705476538
3580.9636,1.170464153875168,1499.7509944727594
3581.7893,1.1723465844450351,1131.709289827299
3582.6133,1.174646860065306,1494.14606879359
3583.4395,1.1763496066001953,1280.090389972895
3584.264,1.1765706951285508,1195.0020138282493
3585.0884,1.1751946641894504,1326.5277383495563
3585.915,1.1728501143874197,1310.9238875379206
3586.74,1.1704144833667445,1094.6986875867435
3587.5671,1.16838216949255,1068.8606765408404
3588.3923,1.1666886026620755,1441.8361645483592
3589.22,1.1649417670886824,1121.7050695087894
3590.0457,1.162954764156083,1299.6600677339848
3590.8716,1.1609714256923827,1255.3096425070116
3591.6995,1.1594745678329474,1172.5276883986712
3592.526,1.1587728040265375,1259.8421986351962
3593.3542,1.1588074811191864,1263.6408098339987
3594.181,1.1593487299874032,1340.8484601387124
3595.0098,1.160207035727522,1167.9816868405592
3595.8367,1.1611835599835054,1464.0305993711343
3596.6638,1.1619469290297506,1251.1618101520987
3597.4934,1.1621177840386483,1338.3140910840043
3598.3208,1.161563205516304,1380.4508281159867
3599.1506,1.1604931337703537,1148.0297350318006
3599.9788,1.1591568714679548,1462.367351442542
3600.8088,1.1574140152363326,1147.856819411217
3601.6372,1.154757544940989,1422.656595865807
3602.4678,1.1507925562419272,1567.7640721063267
3603.2964,1.1458658666861166,1239.9683026417913
3604.1252,1.1410588699016675,1319.018811201917
3604.9565,1.1376667316298104,1329.9439626075043
3605.786,1.1365398185853488,1130.1234851347035
3606.6172,1.1377359571246832,1441.5328278043817
3607.447,1.1406909843467243,1559.343326501579
3608.2788,1.1445449854388619,1241.56267967014
3609.109,1.1484033591365823,994.097640060078
3609.9392,1.1516183216806437,1431.279417238905
3610.7717,1.153815289096033,1561.5080220025893
3611.6023,1.154784622760553,1082.9041718660533
3612.435,1.1544642280613682,1125.8662069820425
3613.266,1.1530358980506124,1162.7373649374413
3614.0994,1.1509905925269326,1284.052424310976
3614.9307,1.1489319073272564,1343.463636718198
3615.7625,1.1472002365831675,1232.2460744129046
3616.5962,1.1458340925710768,1319.323666683963
3617.4282,1.1448535963189552,1417.2343096273146
3618.2625,1.1444022159553604,1272.2922356658144
3619.0947,1.1444618193777751,1258.4192566309312
3619.9292,1.144451454420414,1362.2222329500732
3620.762,1.1434161303527144,1267.341398615859
3621.595,1.1407784365029285,1240.0130096267126
3622.4302,1.1368428761979918,1368.1618619042813
3623.2634,1.1325323172248074,1422.8446699171577
3624.0989,1.1285893082734477,1279.8223441063774
3624.9326,1.1253400910710203,1475.6177087820633
3625.7686,1.1229250237591069,1289.5656983426911
3626.6028,1.1216901398062133,1487.2701019485514
3627.437,1.1219928219606528,1740.2896353678047
3628.2734,1.1237729838324098,2019.4821494308965
3629.1082,1.1263112712766392,1557.8639418785424
3629.945,1.1285627402986285,1191.168076591891
3630.78,1.1296779040751648,1647.9582382043052
3631.6174,1.1293900367157248,1596.8464013406945
3632.453,1.1279411523992209,1406.1021222981497
3633.2883,1.1257652841521717,1283.1479406146948
3634.1262,1.123178227193686,1289.9991946446394
3634.9622,1.1203353742130753,1301.3133271227891
3635.8005,1.117365328903318,1227.3825829469408
3636.637,1.1146636285750575,1418.7114362423054
3637.4756,1.112806630924091,1323.6509951663913
3638.3123,1.1122042701518622,1630.2755463550982
3639.1492,1.112635794332991,1209.2984430789015
3639.9885,1.1133120280140176,1379.2508827779916
3640.826,1.1134581233348837,1597.0597302359665
3641.6653,1.112952231146568,2182.903492317646
3642.5032,1.1123604861544574,1739.1400413003914
3643.343,1.1123665410511216,1529.8130321851063
3644.1812,1.113177379827824,1719.0656617069578
3645.0195,1.1144022984108242,1461.6974011348161
3645.86,1.1154244669210198,1328.1478939289461
3646.699,1.1159033991342824,1147.458347816793
3647.5398,1.1160572828285418,1210.6359453540726
3648.379,1.1164602789659457,1400.6063741460218
3649.2202,1.1175491413357266,1435.228297919048
3650.0596,1.1192321477526208,1351.271849520214
3650.8994,1.1209779238942357,1124.8828357573534
3651.7412,1.1222425584164837,1191.941311935597
3652.5813,1.122880501419146,1457.5871039080887
3653.4236,1.1231990419526627,1577.393513167446
3654.2642,1.123561051420668,1275.305403820089
3655.1067,1.1239250989402736,2392.5763443441824
3655.9475,1.1237403920098445,1269.4935447485168
3656.7886,1.1223477520904277,1562.8783519741025
3657.6318,1.1194887160329108,1643.7717468991004
3658.4734,1.1155309868061958,1352.15778604588
3659.317,1.1112305252965902,1326.8215716642926
3660.1587,1.1074754924067367,1290.1451910270941
3661.003,1.104919364344805,1702.599777908136
3661.845,1.1037986376082631,1727.7239611680482
3662.6875,1.1038656166182532,1518.541555289601
3663.532,1.104756006558759,1648.7149319383057
3664.3748,1.1063289908309846,1540.9363145429124
3665.2197,1.1086414067002335,1465.3977280190552
3666.063,1.1115666506909434,1646.8378007887889
3666.9084,1.1146796383603224,1499.006425811665
3667.752,1.1174047632013888,1814.582446835165
3668.5977,1.1192830517561854,1604.7662469442448
3669.4417,1.119921195087929,1216.5241382062045
3670.286,1.1190068518472154,1373.294428233539
3671.132,1.1164653256301815,1565.9204136465964
3671.9768,1.1127570853064999,1533.0614377826546
3672.8235,1.1088673237896525,1426.8332434071465
3673.6685,1.1059859318938503,1513.2582173402343
3674.5156,1.104862450501612,1593.2416217445807
3675.3608,1.1054573672759738,1352.3289008513111
3676.2063,1.1070477856414571,1311.3201170587522
3677.0542,1.1088053576981758,1076.0800199125724
3677.9,1.11028011184467,1276.7483410734158
3678.748,1.1114637819094604,1882.577121206962
3679.5945,1.1123864071638674,1551.4225938181894
3680.4429,1.1128756110201847,1320.4209553562855
3681.2896,1.1127295111717619,1430.346098220949
3682.1365,1.1121116851108916,1415.0177651855763
3682.9856,1.1115765483533404,1420.1887635559203
3683.8328,1.1116175688293828,1353.5446022059102
3684.6824,1.1122087198501232,1279.983221054662
3685.53,1.1128731302290384,1196.9911215912505
3686.38,1.113147221847242,1596.232134934025
3687.2278,1.1128510093112127,1482.1992340098573
3688.0762,1.1120027694705987,1532.4122702666823
3688.9265,1.1107006369088266,1447.9724717734478
3689.7751,1.1092303281142866,1101.5802620403365
3690.626,1.1081007614986351,1651.7898325222156
3691.475,1.1078378346223536,1760.0997979701897
3692.3264,1.108631518515894,1212.2161769048894
3693.1758,1.110198969426688,1645.9126719242001
3694.0254,1.1119201415976065,1716.0413908840335
3694.8772,1.1131317949416892,1446.8884891122927
3695.7273,1.113489275099903,1384.3812485061853
3696.5793,1.1132043804915301,1320.7052869029471
3697.43,1.1128471897849737,1463.311127466236
3698.2825,1.1128330743261552,1607.76546058768
3699.1333,1.1130699785767986,1727.7082440142879
3699.9841,1.113106403431666,1760.9658533960744
3700.8374,1.1125698630414562,1315.7429504900033
3701.6887,1.111435165384471,1323.292901088832
3702.5425,1.1099337050772056,1480.9840225514347
3703.3943,1.1083775672519232,1519.3083904319913
3704.2483,1.1070340408921566,1258.0728211788032
3705.1003,1.1061237850657244,1254.2371761780187
3705.9526,1.1057319124595013,1731.79401411367
3706.8074,1.1057715718527994,1405.659875884809
3707.66,1.1060733376452636,1381.2454319053054
3708.515,1.1066070268755943,1599.3527991156009
3709.3682,1.107600867509031,1579.14952845495
3710.2234,1.1094143266832828,1237.1399200606531
3711.0771,1.112186997943521,1163.9688726158913
3711.9307,1.1155778220287453,1441.2969930031563
3712.7866,1.1187594777407561,1352.0035953692784
3713.6409,1.120717218626807,1472.7148895549685
3714.4973,1.1208110017776638,1751.0366278390436
3715.3518,1.119107353511317,1356.5397458478183
3716.2085,1.116326622609767,1420.3316861392834
3717.0635,1.1134318064905628,1541.8740425110461
3717.9185,1.111102061496769,1268.8980517022935
3718.776,1.109568058658532,1542.4677096098544
3719.6313,1.108833725126048,1407.5757641961982
3720.489,1.1089706766710452,1527.4565018848423
3721.345,1.1101351625703204,1772.2016872015254
3722.2031,1.112182950057762,1477.8064424954434
3723.0593,1.114322890452689,1489.1740646951023
3723.9158,1.115393774001068,1387.1093953135817
3724.7747,1.1145637140686064,1333.3884014560997
3725.6316,1.1118908166873933,1618.539700316533
3726.4905,1.1081827651922787,1405.7226549685029
3727.348,1.104474289754063,1596.343426656076
3728.2073,1.101538470635596,1456.2474661727524
3729.065,1.0998163969178913,1504.5872079328938
3729.9229,1.0993620860298856,1193.8263225005664
3730.783,1.0998471344862528,1496.7348131319848
3731.6414,1.1006405104853707,1615.2541634711797
3732.5017,1.101124946677966,1401.3464430205765
3733.3604,1.1010148714210357,1465.4439167854696
3734.2214,1.100437668391119,1641.9573253855087
3735.0803,1.0997561571133527,1346.9208312912735
3735.9417,1.0993427655027719,1310.4484066480609
3736.8013,1.0994499592265896,1418.9490682993887
3737.661,1.1000769650017743,1548.7640023405959
3738.5227,1.100892676717248,1285.5098778451866
3739.3828,1.1013396113140468,1419.2221795668413
3740.245,1.1009605708078065,1521.4550697908749
3741.1055,1.0996832711555977,1438.6500047086517
3741.9683,1.0978776994939896,1409.823382042873
3742.829,1.0961939574929231,1570.2491987017727
3743.69,1.0951557968920254,1565.4658882730203
3744.5532,1.0948001627589947,1356.8765162599457
3745.4148,1.0946348212746901,1296.1727553041042
3746.2786,1.094061992945911,1407.9257127341343
3747.1404,1.0929416829012568,1297.8352182128938
3748.0044,1.0917383004400567,1786.1542217809697
3748.8667,1.09117677629503,1658.448759576698
3749.729,1.0916865087807228,1436.3808947861132
3750.5938,1.0931246779555674,1368.200142742119
3751.4565,1.094870864308012,1528.2844800313683
3752.3215,1.0962637356406835,1306.839347655781
3753.1848,1.0970107559279765,1257.9026772433185
3754.0503,1.097394230918872,1305.9633713443984
3754.9138,1.0980623942019359,1377.9681239424806
3755.7776,1.0995942171304163,1360.1938581135419
3756.6438,1.102114780258449,1410.3090426639667
3757.508,1.105187655917319,1527.9372963025824
3758.3745,1.1081169447732022,1221.604678065033
3759.239,1.110278170999973,1251.5265670623078
3760.106,1.1114224162843072,1519.8906803765187
3760.971,1.1116479216889852,1416.2195618981611
3761.8362,1.1112553411420356,1352.0690400828096
3762.7036,1.1105290413732765,1291.9446072712237
3763.5693,1.10964186456078,1095.7187072762788
3764.437,1.1086568801547367,1513.692855647268
3765.3032,1.1075795863167417,1472.079984460976
3766.1714,1.1063168911082732,1511.5867570912426
3767.0378,1.1046773839296247,1288.483859999834
3767.9043,1.1024766317218622,1406.5769121801536
3768.7732,1.0997516187358505,1420.9722455137864
3769.6401,1.0968833275771595,1510.1150735554565
3770.5095,1.0944275956699432,1476.6685331218332
3771.377,1.0929299199976135,1646.5522353068118
3772.2466,1.0926447330971343,1606.5893533100498
3773.1145,1.0933969769487017,1462.602386646738
3773.9824,1.094590259008228,1366.3469341647794
3774.8528,1.0954789476460318,1250.782440775155
3775.721,1.0955304331057623,1332.3933314885592
3776.5918,1.094700137623308,1133.1418139703296
3777.4604,1.0934762402827953,1570.32212810369
3778.3315,1.092683121351269,1329.7438117243746
3779.201,1.0931250385564486,1532.1880601844307
3780.0703,1.0951903061413346,1535.8077084740337
3780.942,1.0987377895871637,1352.4094725661896
3781.8118,1.1032081048165554,1275.2135919762181
3782.6838,1.107909523384481,1353.6172680991958
3783.554,1.1121049611318836,1235.4248704018717
3784.4265,1.1152450395464704,1692.2189208220216
3785.297,1.1170568715770004,1135.4624107396446
3786.168,1.1176666864023297,1291.2483144543546
3787.041,1.1174519354950254,1222.243228132536
3787.912,1.11685927982793,1480.8066598761495
3788.7856,1.1162211212967814,1539.141905700497
3789.6572,1.1156162526566389,1187.5898877289133
3790.531,1.1147377263895508,1673.0976102488332
3791.403,1.1128942360497056,1292.7923372026587
3792.2754,1.1092109620164663,1321.3226513254624
3793.15,1.1030506056886429,1361.6924518276433
3794.0225,1.0944920013653694,1306.9520908026686
3794.8972,1.084293967719757,1574.1558214475192
3795.7703,1.0737279982820935,1263.324692081843
3796.6455,1.0639896479802395,1305.1776286201684
3797.519,1.0561781178502334,1386.9788176135041
3798.3926,1.0511680046112863,1552.1301981002139
3799.2686,1.0496917242528225,1679.102411112404
3800.1426,1.0521155599932699,1385.0774435490878
3801.0188,1.0581066948406288,1466.5907906078378
3801.8933,1.0664735499890285,1555.5177013764282
3802.77,1.075605795817654,1603.84558391264
3803.6448,1.0840564299841706,1531.1756801012239
3804.522,1.091309969514892,1567.7109820710584
3805.3972,1.0976534406276068,1321.2985066025883
3806.2727,1.1037769642919828,1317.5232646642298
3807.1504,1.1100991859292462,1324.4360066064605
3808.0261,1.1164742412422697,1136.066325077681
3808.9043,1.1224464097868052,1373.9770379116896
3809.7805,1.127451587310726,1346.403152512269
3810.659,1.1312207134945969,1506.8583026582724
3811.5356,1.133852673534993,1396.4060444053925
3812.4126,1.1358629108854612,1406.8328316128284
3813.2917,1.137922136258727,1324.6672277114208
3814.169,1.140488114699994,1146.874169487953
3815.0483,1.1435426723694995,1345.0512161859297
3815.926,1.146483046147406,1329.211304507218
3816.806,1.1483960028754354,1181.2765332551505
3817.684,1.1484306499066401,1262.5172589288588
3818.5623,1.1462397657023777,1300.015628596761
3819.4429,1.1421171178901335,1202.6977144119592
3820.3215,1.136872831216515,1431.0684906102124
3821.2024,1.13132187473204,1406.229689505807
3822.0815,1.1259724315143427,1446.6626400216717
3822.963,1.1208191212975458,1295.5455201928264
3823.8423,1.1155912845622808,1546.784681192649
3824.722,1.1098555189405404,1729.7392234939014
3825.604,1.1031483973119678,1373.5964039721023
3826.4841,1.095140257717172,1315.81503228835
3827.3665,1.085696384494706,1229.1337817587512
3828.2468,1.0751565257990672,1627.3727206394194
3829.1296,1.064036547601472,1426.973449973903
3830.0105,1.052872975480955,1883.3532743917215
3830.8916,1.0417016450042744,1626.7375384923462
3831.7751,1.030144626101452,1754.9412351173728
3832.6565,1.0179061979269899,1607.1503362407086
3833.5403,1.005066575180703,1645.973627285771
3834.4224,0.9925436070265865,1692.2169135986305
3835.3064,0.9816533132280529,1961.2474150449063
3836.1887,0.9738846625933679,1969.6185646800523
3837.0713,0.9703420123530688,1813.0025495130317
3837.956,0.9715997930219562,1872.521414108637
3838.839,0.9775398439452563,1760.62107611735
3839.7244,0.987451414756607,1480.409449916493
3840.6077,1.0001693224479742,1756.9573320950415
3841.4932,1.0145822946514356,1563.8793443864301
3842.377,1.029692065790279,1459.1490988853673
3843.261,1.0449802408171123,1365.8888293201383
3844.1472,1.0603574135080145,1321.7769208945745
3845.0315,1.0759495458228128,1393.4773467242615
3845.9182,1.0920131435466447,1434.7191596804314
3846.803,1.108170842949065,1437.429746576435
3847.69,1.1235630910336414,1486.3604499941325
3848.5752,1.1369632401728977,1367.322307850618
3849.4604,1.1476935251550209,1077.046678098959
3850.3481,1.1558344877678624,1361.5051445056679
3851.234,1.1619135876771371,1419.3229634467993
3852.122,1.166559933473592,1255.5336565663172
3853.0083,1.1701647894167495,1125.688228974965
3853.8967,1.1731080175869073,1550.2824451075187
3854.7832,1.1758587821428248,1291.5028491978255
3855.6702,1.1789743635616878,1199.688462889233
3856.559,1.182783677075105,1323.507329918339
3857.4463,1.1870483547785518,1184.4044651637826
3858.336,1.190991550465347,1197.2281439925273
3859.2234,1.1936607501173615,1183.9651528231334
3860.1135,1.194674848629121,1171.5605724670595
3861.0015,1.194531803559917,1193.6772317105701
3861.8896,1.1942708519455263,1270.067504298045
3862.7803,1.1945896647136192,1273.7776887783461
3863.6687,1.1951995641859483,1146.0582292210245
3864.5598,1.194987275873793,1165.832839441266
3865.4487,1.1928335841463078,1251.7825421464097
3866.34,1.1883710663695661,1379.7670787157072
3867.2297,1.1821727276776475,1193.4900192940959
3868.1213,1.175225093299271,1183.7253518670361
3869.0112,1.1684385737676704,1326.9372156494471
3869.9014,1.1622558377186982,1230.5500725947388
3870.7937,1.156760926187952,1062.5453124597848
3871.684,1.1519219302160735,1287.6712369863822
3872.577,1.1476073768617354,1225.9769331965238
3873.4678,1.1435748574208338,1190.0871726235684
3874.361,1.1391970116473724,1440.7961509139611
3875.2524,1.1335154306846826,1270.6712085999636
3876.1438,1.1254216163276054,1266.0392698541114
3877.0376,1.1141208672333305,1538.2067698101491
3877.9297,1.0996610522495285,1197.8659489307688
3878.8237,1.0828153421103226,1627.1423064122143
3879.716,1.064902530676773,1425.8914827897809
3880.6108,1.0468401858238028,1932.0392549924393
3881.5037,1.0290095663782923,1658.1335758193393
3882.3965,1.011035886669521,1507.3715109203604
3883.2917,0.9923776157110619,1863.0847665143488
3884.185,0.9729169405700533,1734.4498257501675
3885.0808,0.9527456441939233,1853.0679493115422
3885.9746,0.9324152789351884,1733.8916863553668
3886.8706,0.9124366018400222,2807.244913783518
3887.765,0.8937097674562727,2524.2492836073807
3888.6592,0.8773910630709221,1951.8561962115602
3889.556,0.8650884426713832,2601.2761427762016
3890.4507,0.858630383802088,2782.2266512590104
3891.348,0.8592102331299982,2521.731345049869
3892.243,0.8668702778582225,2193.731558332333
3893.1406,0.8804475170340259,2165.8743850734436
3894.0361,0.8979604072069873,2249.9035856376345
3894.932,0.9175278886970227,1983.5714086274418
3895.83,0.9376788151293376,1486.4243262005348
3896.7263,0.9572526802652123,1876.325345071538
3897.625,0.9757583518392556,1884.6327044083005
3898.5215,0.9930905960419621,2145.476344764155
3899.4207,1.0099249897325828,1589.351587842431
3900.3176,1.0270693896425764,1656.719173384573
3901.2148,1.0452908485399368,1776.3286128632258
3902.1145,1.0647677886164855,1343.672455805622
3903.0122,1.0848978593587404,1361.8625562010843
3903.912,1.1049766769221954,1408.1944991023774
3904.8103,1.1242942477684075,1228.9303866216437
3905.7107,1.1427129280046042,1514.452995425059
3906.6094,1.1602325979670132,1126.2444877234786
3907.508,1.1770161089800617,1231.4421114104446
3908.409,1.193103606654275,1232.029078031405
3909.308,1.2082853244061005,1323.461425589494
3910.2097,1.2224171597613671,1033.2381112992805
3911.1091,1.235227140691453,964.4885282181295
3912.011,1.2466893587411816,1051.2082071931973
3912.9111,1.2568321581535076,1044.0861240633283
3913.8113,1.2659137159017824,1011.0032868572866
3914.7136,1.274250713215765,993.7235111761604
3915.6143,1.2820969094812793,970.7831111374012
3916.517,1.289738878840729,1046.5881748753363
3917.4182,1.2972884475930244,1102.1981678835755
3918.3215,1.3047123565713876,963.6547531240003
3919.223,1.3116973426788872,943.6877149011395
3920.1245,1.3179388021411906,1023.7732981645295
3921.0286,1.323279704530393,934.3472540451695
3921.9307,1.3277171713128892,902.4417133562253
3922.835,1.3313771128597285,894.1735689918406
3923.7373,1.3343592250209,955.1630665946525
3924.642,1.336862253872194,1001.1598724923996
3925.5452,1.339161169083395,960.759728572664
3926.448,1.3415097625803027,1037.8710020756612
3927.3535,1.3439077797045211,975.9036455940245
3928.257,1.3460205197531698,1021.5278937675378
3929.1628,1.34740068488114,905.4789536821327
3930.0667,1.3476812989355393,917.9550405407026
3930.9731,1.3466674421009819,980.2169247156643
3931.8774,1.3442784012988254,896.2884879240139
