wavl,flux,ivar
3566.9744,0.2494506815175893,4901.471438751636
3567.795,0.2506661254905385,2814.2429177615813
3568.6177,0.25140464145426406,1369.4546162867703
3569.4385,0.2509240326474893,2130.2116236684383
3570.2617,0.2493711264299832,4918.749994815462
3571.083,0.2477488909380005,2224.1233506130657
3571.9065,0.24717370431203153,5644.221415954327
3572.7283,0.24815273451307063,2527.1720412456234
3573.55,0.2504070515857337,1460.382487312353
3574.374,0.253297500150378,2302.7743217854504
3575.1963,0.2562405769222822,2257.1348364128826
3576.0208,0.2588498236601643,2515.0289864172983
3576.8435,0.2607473375804543,1173.5625322196474
3577.6682,0.26159956393252676,264.2264136624885
3578.4915,0.2612684920040821,942.272994880843
3579.3145,0.2599521195845342,970.2856153445866
3580.14,0.2580689924637484,1715.3891508699385
3580.9636,0.2560811384099438,2052.5146595488122
3581.7893,0.2543176825553208,2730.4051367352477
3582.6133,0.2529583493518306,1262.5805234374884
3583.4395,0.2520199630888946,3326.2486372737944
3584.264,0.2514318740670775,1198.9406190125578
3585.0884,0.2510376828722662,1577.1354773389057
3585.915,0.25056857919379105,2069.0308681374454
3586.74,0.24968492547126017,1331.9214441960976
3587.5671,0.2481971202160607,1473.1792422531573
3588.3923,0.24633872507499566,783.7271651192436
3589.22,0.244672317518723,1372.320247641472
3590.0457,0.2437006255764543,2190.761581001968
3590.8716,0.24347797829505843,1154.9232301848701
3591.6995,0.24372848628358204,2138.6979352909198
3592.526,0.24424825907298717,1924.397662394727
3593.3542,0.2451331669885364,2935.8298883859443
3594.181,0.24653839797819063,3793.1399613615267
3595.0098,0.24825834506600417,2940.86893451457
3595.8367,0.249532450568719,2114.753629499276
3596.6638,0.2494389261426474,2469.570929787453
3597.4934,0.24757176860832214,2237.774192906548
3598.3208,0.2445364427502866,1967.636078785581
3599.1506,0.2416229817929624,1353.2922007282336
3599.9788,0.23996640945957398,2673.5017219087913
3600.8088,0.23977998729618472,2660.954498319486
3601.6372,0.2404831427714129,2497.559878987425
3602.4678,0.24142571485943162,2739.755712296659
3603.2964,0.24245283034198403,3778.649984505303
3604.1252,0.24378089980125134,1837.670172904136
3604.9565,0.24537376643356534,5600.328857618157
3605.786,0.2465604296542501,3562.2071569369846
3606.6172,0.24643587515027185,1453.4351873222597
3607.447,0.2446728639156639,761.6686216644864
3608.2788,0.24196976250809088,3636.4813394436833
3609.109,0.23964147173709915,8901.742087341037
3609.9392,0.23864953709361922,2418.7702714997786
3610.7717,0.2390503665674735,6238.954522645789
3611.6023,0.24018274351994484,1801.4398517641487
3612.435,0.24133710504251268,2191.9220852231083
3613.266,0.2422285582893572,1058.2135165437717
3614.0994,0.24300432843682263,1694.4972858410551
3614.9307,0.24386746643042856,2108.965441164884
3615.7625,0.24477789620663332,2413.0646239422076
3616.5962,0.24542735187141046,919.7528113525484
3617.4282,0.24544664054591245,2853.307815910356
3618.2625,0.24464450107209942,5179.977198201577
3619.0947,0.2431869521324792,2366.478145978289
3619.9292,0.24168659137505147,1432.1430437503243
3620.762,0.2411033028993063,2876.7937563465816
3621.595,0.24223618545186587,2055.7035312837515
3622.4302,0.24512412297189592,1678.7578750778043
3623.2634,0.2487678534609177,1952.1183182060406
3624.0989,0.25165266082927873,1482.2398646060005
3624.9326,0.2525799820676222,1189.3905017746486
3625.7686,0.25132736382441667,2921.50269393499
3626.6028,0.24856398988285114,2264.488718133594
3627.437,0.24530565236419707,1566.103130495435
3628.2734,0.24241186394468567,3045.080978270829
3629.1082,0.24038258693325074,1981.077334689728
3629.945,0.2392822207489946,1613.8756079955242
3630.78,0.23884481393842527,3761.223513035547
3631.6174,0.23858365104370566,2323.77789893355
3632.453,0.2379537144074691,1584.5419431306154
3633.2883,0.2364665929174555,2257.3695829658855
3634.1262,0.23379246269287352,1711.8959071319864
3634.9622,0.22991475540800704,5515.189813885457
3635.8005,0.22516530979320923,2302.4275616569907
3636.637,0.22026530857103946,2097.7999884845913
3637.4756,0.21604745806825107,5754.252575236555
3638.3123,0.21329944207281254,4941.260864006249
3639.1492,0.21249411200075793,1826.1918255222272
3639.9885,0.21371273974978838,2026.3852841569608
3640.826,0.2165356573094193,2323.1655120830183
3641.6653,0.22012725541233197,1734.3642103161299
3642.5032,0.22346283894522415,1719.520569534146
3643.343,0.22576093657161694,2105.795597793823
3644.1812,0.2267095444282422,1597.8110804130956
3645.0195,0.22651978594117855,2300.8208295760296
3645.86,0.2257068713038482,4090.2906012178896
3646.699,0.22485947073280269,4485.50206801275
3647.5398,0.2244364526884036,2962.4476621148197
3648.379,0.22463493752295974,3519.277418398062
3649.2202,0.22526986262524598,6238.946132820265
3650.0596,0.22578460720475285,2431.710726707306
3650.8994,0.22552450105490301,1969.725217700352
3651.7412,0.22413483019533756,6658.770422693301
3652.5813,0.22181313842830985,2766.4500243538023
3653.4236,0.21916177508555928,5528.476427057248
3654.2642,0.2168939274397527,2239.9674735137287
3655.1067,0.21551215293108378,3352.2774485412156
3655.9475,0.21521569204902752,7126.727028892444
3656.7886,0.21587403186262086,6620.134584288912
3657.6318,0.21714735977573763,3868.7346538037064
3658.4734,0.21863792100429702,1426.487800653893
3659.317,0.22004474883823708,1486.1112886645444
3660.1587,0.22116531020141686,2329.575311678501
3661.003,0.22190133657528777,1882.2085622941977
3661.845,0.22227557839633455,3919.8641001054434
3662.6875,0.22248067209254851,7656.42368748545
3663.532,0.22276620452313547,2314.0310562642494
3664.3748,0.2232362962725548,1886.36176177805
3665.2197,0.22377542319716498,3054.58672598143
3666.063,0.2241749150813782,6001.220312834768
3666.9084,0.2243019385142573,3668.400788218841
3667.752,0.22411431877071994,2939.4997273668073
3668.5977,0.22363884621809682,3725.3976890309236
3669.4417,0.2230225544856208,5381.552787377799
3670.286,0.22250393903302557,2870.4382777365063
3671.132,0.2221728247303414,2483.065008283872
3671.9768,0.221724497353915,2827.5924049652813
3672.8235,0.22058009087040314,4237.948094157265
3673.6685,0.2183883892487681,4684.0001041256555
3674.5156,0.21539939548261425,3832.675366900944
3675.3608,0.2124461521358194,2050.4531021267867
3676.2063,0.21047263802247354,1973.31609335865
3677.0542,0.21011504963609748,4420.5664124739305
3677.9,0.21145706904611206,3381.250884812148
3678.748,0.21405328662078205,6488.509297171057
3679.5945,0.21711729729047832,2120.9710903957584
3680.4429,0.21985499818015244,1240.0939934197577
3681.2896,0.2216770662109244,1649.6473321429737
3682.1365,0.22236546407841884,3350.2982276691437
3682.9856,0.22201845541759416,2220.616917469668
3683.8328,0.22095728451330304,3076.7368734569386
3684.6824,0.21959235311496988,4060.8233739230873
3685.53,0.21830457502774311,5254.1703353981
3686.38,0.2172925666328534,4574.41653428111
3687.2278,0.21656290341004705,2636.7400104218896
3688.0762,0.21601165382682547,3856.6132145313472
3688.9265,0.21556537614881535,2503.235551193872
3689.7751,0.21523817236599077,2759.2272815582082
3690.626,0.2151298177990647,4089.2382366340544
3691.475,0.21542240943257565,2756.386087212809
3692.3264,0.21630667446365778,2629.255091384908
3693.1758,0.21780116879940234,4613.75711194868
3694.0254,0.219631205435336,3073.0872149435872
3694.8772,0.22132128489215447,3104.866128821237
3695.7273,0.2224708591182596,3740.660247939374
3696.5793,0.2229816614256705,4926.9577373602215
3697.43,0.22297187867606721,6963.913532436288
3698.2825,0.22260241588591234,6507.258256344314
3699.1333,0.2220191136144297,2436.6739067576978
3699.9841,0.22140661037960804,3904.792965893906
3700.8374,0.2209661972445535,2994.9760333635586
3701.6887,0.220760922719668,4647.601952798866
3702.5425,0.22057710080850326,3020.9073367464753
3703.3943,0.2199947288276704,2406.178467733402
3704.2483,0.21863008536325226,3524.2501727382896
3705.1003,0.21642877777365288,2941.2032401931237
3705.9526,0.21376314744162236,1737.5840119661984
3706.8074,0.21130296962137302,4493.139589265955
3707.66,0.2097021877858872,2276.9167290110504
3708.515,0.20919847196838381,3551.4396313142825
3709.3682,0.20948353449480506,1865.673238858019
3710.2234,0.2098672968426362,3697.1984275977493
3711.0771,0.20974112682998652,3002.786329311793
3711.9307,0.20902349311191384,2397.6512553124903
3712.7866,0.20821802220925978,2441.7829347773672
3713.6409,0.20801268593838648,5077.268691409448
3714.4973,0.20868907765589156,4377.965886049327
3715.3518,0.2098811141254722,2567.688104464516
3716.2085,0.21091112395718814,1756.6008198429972
3717.0635,0.21136118248467436,2987.5919931905823
3717.9185,0.21139966786620315,3834.032072648757
3718.776,0.211569618684786,2821.368874263254
3719.6313,0.21230482109286578,3272.4581059059747
3720.489,0.2135681695371377,3579.8841374074655
3721.345,0.21485180443349494,3363.3252017548652
3722.2031,0.21555802827560722,3389.3589304030406
3723.0593,0.21538306553024708,7496.854754949724
3723.9158,0.21442161359106293,2002.4069388647251
3724.7747,0.21291354750546157,2488.4849550241393
3725.6316,0.21101077014677116,2837.1897758022774
3726.4905,0.2087528946566056,2479.9822861737857
3727.348,0.20630263725778616,2819.493238893462
3728.2073,0.20405178092374693,2806.9896866753697
3729.065,0.2025546083971831,2022.8091673264973
3729.9229,0.20218512323251514,12404.338885814428
3730.783,0.20288389704932147,1978.964479528588
3731.6414,0.20416015214228886,3120.3338644492796
3732.5017,0.20543577097584476,1640.113974266678
3733.3604,0.20638833614444174,3005.298222248781
3734.2214,0.20706471012469488,3082.028791760896
3735.0803,0.20769975052874756,2438.876580360935
3735.9417,0.2085206545878576,3756.7950390299943
3736.8013,0.2096068557656115,4249.108464439283
3737.661,0.21087142673878345,3258.9065539143085
3738.5227,0.2121070243917979,2714.305619760703
3739.3828,0.21308316033775837,4515.888987688023
3740.245,0.21365671686200335,4401.615052246013
3741.1055,0.21377577134453257,2754.1993726968876
3741.9683,0.2134762257139988,4770.790717610163
3742.829,0.21289325049625651,1569.5191791987816
3743.69,0.21227136824942894,2840.8437352830842
3744.5532,0.21189537940608166,3317.0038430992195
3745.4148,0.2119342922643277,2792.970385859406
3746.2786,0.2123063366973569,2643.134891869202
3747.1404,0.21272035353802435,1851.240245032012
3748.0044,0.21289532976308048,4535.012030216666
3748.8667,0.2127735098631047,3243.211369104507
3749.729,0.21254093540711735,3126.6807960239407
3750.5938,0.21240959998940068,3053.2216257052087
3751.4565,0.21238039110555654,2573.4434411630173
3752.3215,0.21223554850018558,3748.1473335828505
3753.1848,0.21179300362860884,2963.2244896668835
3754.0503,0.21115109536270024,4091.4109044500583
3754.9138,0.21066885116090414,2768.895365812865
3755.7776,0.21065187679596659,4334.900174553042
3756.6438,0.21105978588586713,2812.5031710550384
3757.508,0.2114986042112385,8147.38905225759
3758.3745,0.21153747828657793,2100.3368266828284
3759.239,0.21101868734419268,2734.8368531572514
3760.106,0.21008894738559744,3754.4392052543003
3760.971,0.20902020668258042,2415.8635628375355
3761.8362,0.20805717478291977,3228.0517420290853
3762.7036,0.20743351236945407,3843.898590857092
3763.5693,0.20736949992882325,4194.762453335869
3764.437,0.20793442979627064,2598.3958301769876
3765.3032,0.20892126369727324,2147.0988055688113
3766.1714,0.2099114952226152,1628.6632627151412
3767.0378,0.21049092238166808,2752.8397566054846
3767.9043,0.21047836919064053,3305.173026935645
3768.7732,0.20997466044074156,2721.9312062327713
3769.6401,0.2092737182354947,3587.437560704389
3770.5095,0.20868240141698985,3331.1099478830215
3771.377,0.208404774478604,2796.7042680388254
3772.2466,0.20853507470645669,2773.737371063363
3773.1145,0.20913760504286544,3460.9252044610816
3773.9824,0.2102111936332868,2396.7157392670842
3774.8528,0.21149713660129157,2299.1367481927405
3775.721,0.21236051981231144,2307.8935394807477
3776.5918,0.21209452324794728,4513.822750136128
3777.4604,0.21048799732469797,2766.0302672462476
3778.3315,0.20819022309201524,4776.337805654584
3779.201,0.2064817579192519,3844.5829431166426
3780.0703,0.2064607248786011,2196.6564535694697
3780.942,0.20834533481887513,4945.8226658084905
3781.8118,0.2113337943568986,3697.5667144739073
3782.6838,0.21420282693582732,913.352402279513
3783.554,0.2160396242196928,1461.1115913070098
3784.4265,0.2166776726739493,4481.352653184946
3785.297,0.21647304629047995,2984.8630165948275
3786.168,0.2158481033788204,1962.3008148799538
3787.041,0.21497320983416132,3401.6971961377576
3787.912,0.21381782905441418,1718.0251996980928
3788.7856,0.2123428066589303,1945.3372948038384
3789.6572,0.21062248111100634,6091.477029699429
3790.531,0.20874258431313125,8338.352773089657
3791.403,0.20677509536588015,2785.8507407086036
3792.2754,0.20484348645333808,2672.154791541691
3793.15,0.20322505132987354,3587.5614033672555
3794.0225,0.20222232315174807,3454.3135804874914
3794.8972,0.20187318769841345,4328.014184410089
3795.7703,0.20192291860066713,1905.5552200318705
3796.6455,0.20209137639417377,4342.75565513516
3797.519,0.2023635251252356,4540.107924022533
3798.3926,0.20297544307525006,1939.5434589408394
3799.2686,0.20414227793550466,2590.7696638105053
3800.1426,0.20578804471696785,5760.559593699544
3801.0188,0.20754006637889635,5693.627918603843
3801.8933,0.20893548611517618,1777.1805138551622
3802.77,0.2097834473644487,2387.1323721963063
3803.6448,0.21028831046865434,1124.1138640166573
3804.522,0.21083728755655187,3950.177768673094
3805.3972,0.21154641977146413,3650.305563097845
3806.2727,0.21204697316346172,2838.973941210689
3807.1504,0.2117485437069147,5808.64833985198
3808.0261,0.21041814629372693,2368.695428500262
3808.9043,0.2085109050780689,2571.0189892941808
3809.7805,0.2069356171900707,4470.5277469865705
3810.659,0.206394519514774,5153.521514200333
3811.5356,0.2069882340546275,2989.6589338730473
3812.4126,0.20831717986937626,2817.9819951646373
3813.2917,0.20989087261348574,2851.7331390034115
3814.169,0.21136319131826706,5664.4366458397935
3815.0483,0.21254702049945914,2181.5498804646963
3815.926,0.21330821499427116,3625.8412967838112
3816.806,0.21358671875898966,4089.260556229162
3817.684,0.21341978858386196,2500.33728679883
3818.5623,0.21294370466764775,3045.588701469779
3819.4429,0.21235076780913303,2020.3419527845717
3820.3215,0.2118477728426157,2657.978780103463
3821.2024,0.21157513001127629,2413.4790440911115
3822.0815,0.2115476588278031,2719.607463895197
3822.963,0.21164926660207914,2555.572968642529
3823.8423,0.21170160769695218,3275.692948153519
3824.722,0.2115220349372837,2379.342956129642
3825.604,0.21092251618340177,1767.918188958509
3826.4841,0.2097210528751421,2776.581438925099
3827.3665,0.20780922764193294,3237.764577761446
3828.2468,0.20529628063587663,1942.0331972246588
3829.1296,0.2024858745105737,2791.37928860667
3830.0105,0.19974855444886766,4915.503244292509
3830.8916,0.19726553047178516,2810.0677007029035
3831.7751,0.1950455811261855,2436.1910978039987
3832.6565,0.19313140448603952,3742.2626050411686
3833.5403,0.1916671338196412,3669.6801336717213
3834.4224,0.1907827171307145,2474.366154038911
3835.3064,0.19036595116073085,2943.2462190755687
3836.1887,0.1901527552347625,3567.0717782783604
3837.0713,0.1900312542489445,4091.4789244076696
3837.956,0.1902344467896689,3652.222117821853
3838.839,0.19116113582267774,4408.119593070151
3839.7244,0.19300390267913065,3655.7607155202786
3840.6077,0.19550731286987816,3008.6648209184814
3841.4932,0.1981203128358271,2883.4840967544683
3842.377,0.20030607040343223,2823.8424124606377
3843.261,0.20191670567989495,2843.2361123434507
3844.1472,0.20328567191573077,4033.283568142375
3845.0315,0.20501455808748925,2446.7228863321743
3845.9182,0.20753544667469376,3113.046253784914
3846.803,0.21065960164965059,2792.761468416749
3847.69,0.2136480496050643,2444.3808415398453
3848.5752,0.2156944246839603,1569.6948795487965
3849.4604,0.21657664028298126,8091.144540479379
3850.3481,0.2167404746194667,5501.11793374941
3851.234,0.21684321465687922,2438.7302223116776
3852.122,0.21722019372616969,2185.2984152344848
3853.0083,0.21778429479584485,2294.842673602022
3853.8967,0.21833733284128015,3062.255221577983
3854.7832,0.21880010362464472,3429.4708682421597
3855.6702,0.2191396692784865,4447.118191748213
3856.559,0.2191972915183995,2665.5884325305055
3857.4463,0.2187677531151335,2657.34692744756
3858.336,0.2178780161038404,3052.7157661981596
3859.2234,0.2169413889725876,3051.060468965726
3860.1135,0.21653551729170278,3148.6692423252066
3861.0015,0.21699215473215702,3848.0276568572162
3861.8896,0.21809873118840722,3665.359049393049
3862.7803,0.21921132402158527,2427.857981016885
3863.6687,0.21966269341209846,2215.6039536431012
3864.5598,0.21916646225289485,2120.3388980754066
3865.4487,0.21786056025076309,4646.034311019001
3866.34,0.21605557793012314,2970.6621764365036
3867.2297,0.21402037114821656,2841.785304239875
3868.1213,0.21191166230200936,4935.670544729546
3869.0112,0.20987638368130138,2156.6857934577033
3869.9014,0.20802807370403215,4584.939116869395
3870.7937,0.2064025365636709,4100.057735199533
3871.684,0.20498960734708266,3466.774469329216
3872.577,0.20384406883108866,3721.129162328804
3873.4678,0.20316834821664936,4289.0103069118095
3874.361,0.2031049654685565,2094.3496248885936
3875.2524,0.20346447402135195,4059.505342182835
3876.1438,0.2036650177949252,3794.498162098359
3877.0376,0.20301326489678073,4661.461366644295
3877.9297,0.2011117936789815,4642.301730666877
3878.8237,0.19806836491690719,2796.7680899020056
3879.716,0.19445105548940927,3535.6376281197518
3880.6108,0.1909412591157163,2313.269522105963
3881.5037,0.18804274053957912,5342.442279766846
3882.3965,0.18583492612129204,3321.0616627128597
3883.2917,0.18410038156032724,2959.787021682462
3884.185,0.1826106581027789,5973.571059149086
3885.0808,0.18129457445742964,6885.966777649238
3885.9746,0.18024097972616643,3278.6829910520833
3886.8706,0.17951551634417373,3464.508334357238
3887.765,0.17906266321039507,6552.148131916199
3888.6592,0.17869213955230506,3102.431189331477
3889.556,0.17819781895632356,3859.8970219052544
3890.4507,0.17755713514794202,2945.3947458903776
3891.348,0.17707638860331842,4906.348623510807
3892.243,0.1773097509398571,5352.400811041818
3893.1406,0.17868514086858675,3410.022216508594
3894.0361,0.18111993444459087,4542.211783316306
3894.932,0.1840184829404201,9661.235280855977
3895.83,0.1866318938109771,4134.612942594955
3896.7263,0.18848029072394068,4440.384953861237
3897.625,0.1895830565351195,3130.4607704919167
3898.5215,0.19028389593904677,3416.2295839005646
3899.4207,0.1909954493281046,3876.870729063044
3900.3176,0.19198798498297734,3414.148524771999
3901.2148,0.1933939478636216,3255.6054734216427
3902.1145,0.1952865612475125,4075.1173916546577
3903.0122,0.19768570394850976,2303.6456312317046
3903.912,0.20053110578761102,3326.9875806862556
3904.8103,0.2035959390501763,1973.7398785870691
3905.7107,0.2065884214568269,3732.1652999171806
3906.6094,0.20922679528572138,2948.3239789967893
3907.508,0.21142036078637946,2434.9621244425107
3908.409,0.2133340246481576,3610.725111667877
3909.308,0.21532364284688943,4581.589687173792
3910.2097,0.21773084355198394,3602.5926066103566
3911.1091,0.22055925151398215,1882.0965469697983
3912.011,0.2234374681145376,2577.4625333025083
3912.9111,0.22577719762370937,1949.834738891038
3913.8113,0.2271791084024509,1404.2638420908086
3914.7136,0.22765612224193704,2549.2662311057757
3915.6143,0.22761027855394964,2871.939295995304
3916.517,0.22757179963682975,5965.152784835432
3917.4182,0.22789195610218926,2759.174630298944
3918.3215,0.22861679246814845,2484.045317807901
3919.223,0.22957390843400366,3886.2288621349444
3920.1245,0.23056020593375678,2618.1242253360083
3921.0286,0.23142561803373507,2227.1457208419806
3921.9307,0.23203518610758567,2782.7159979097382
3922.835,0.2322633966413058,1806.022544041861
3923.7373,0.23207431788407382,2585.220674496489
3924.642,0.23161677344778533,2589.9906407505073
3925.5452,0.23115075195059231,2585.813749980537
