wavl,flux,ivar
3566.9744,1.2475664194132536,862.8029968458621
3567.795,1.2462782581618326,911.4008436920486
3568.6177,1.2444479565443765,997.8616335824682
3569.4385,1.2426020060002794,960.2151491616876
3570.2617,1.2407892632374682,1118.3083004362034
3571.083,1.2385986510295244,981.5739840419701
3571.9065,1.2354593766807094,1115.1277731756595
3572.7283,1.2311248962278305,965.8244480546185
3573.55,1.2258540137858362,966.0022842393176
3574.374,1.2203461571630045,1105.0727655737385
3575.1963,1.2155229866615773,1104.3451580917238
3576.0208,1.2121435295611127,1091.9247396731782
3576.8435,1.210683059977927,973.2775217775006
3577.6682,1.2111983325382676,1071.285664370808
3578.4915,1.213361631496971,915.4741206550075
3579.3145,1.2164655241334625,1030.4344849994534
3580.14,1.2194826220332382,1050.268400736291
3580.9636,1.2212697478847896,993.0875248981714
3581.7893,1.2210974148975622,909.2184960839791
3582.6133,1.2190655413354294,993.8978817831929
3583.4395,1.2161059646714456,1060.7709783755715
3584.264,1.2135021437706055,925.4478953241073
3585.0884,1.212167795127286,989.7198102497421
3585.915,1.2122760207001977,984.1091106724983
3586.74,1.2132896803414965,965.0459161561496
3587.5671,1.2143207713878355,1133.9969930182733
3588.3923,1.2145889565442793,986.7019206527814
3589.22,1.213828907765239,972.2946708294489
3590.0457,1.2124142717877424,1020.9679650370196
3590.8716,1.2110880896763883,977.1459884910869
3591.6995,1.2104583511152234,933.9278102420387
3592.526,1.2105747912014266,905.5574840731123
3593.3542,1.2108509808700612,1128.5079326727082
3594.181,1.2103821024569579,907.0458855094338
3595.0098,1.2084597520871567,1050.9563009674353
3595.8367,1.2050173765561771,1068.2656274146157
3596.6638,1.2006590913525046,1155.161693608255
3597.4934,1.1962999622966548,1191.752770419291
3598.3208,1.1927056181494688,1391.8389801875019
3599.1506,1.1901522840573202,1161.5694987021839
3599.9788,1.1885968333510801,958.1281146507828
3600.8088,1.187832198767723,1103.5657388937313
3601.6372,1.1876085298459524,1260.7949517100062
3602.4678,1.187652084930076,1232.8976765934149
3603.2964,1.1878371512099342,989.4180653991713
3604.1252,1.188387017763509,1331.5562390587188
3604.9565,1.189799239338213,1264.34948204124
3605.786,1.1924196260726114,1055.5222188358023
3606.6172,1.1961182127608914,941.0676174225757
3607.447,1.2002805933961327,1140.3719263966316
3608.2788,1.2041635747049477,1057.925026634121
3609.109,1.2070560082919835,1152.5452607463144
3609.9392,1.2083940257650465,983.2724335136602
3610.7717,1.207787540997025,1016.3582476635429
3611.6023,1.20523695108545,988.6002022931033
3612.435,1.2012722608762965,962.3913644972622
3613.266,1.1968729827793396,1158.9290896644923
3614.0994,1.1929935664141065,1022.0906492460122
3614.9307,1.1902186646854147,994.1510887293007
3615.7625,1.1885525283659804,1156.7042239595735
3616.5962,1.1876279552416982,1102.1563423237492
3617.4282,1.1870052646771765,1094.638002594038
3618.2625,1.1864131045968924,1132.7413374957036
3619.0947,1.1858522193587997,1026.9690950489842
3619.9292,1.185515381679389,1125.3605602822527
3620.762,1.185639416435408,1207.7886271886014
3621.595,1.1863286998653415,1082.4320421236393
3622.4302,1.1874506850678685,1069.3407194385989
3623.2634,1.1886399993947752,1093.392030095061
3624.0989,1.1894845387481447,1098.7077693325268
3624.9326,1.1897203942387427,1037.373118030026
3625.7686,1.1893400767325764,1133.3839879457082
3626.6028,1.1885167712876703,1050.2397074092635
3627.437,1.187472167218656,1077.302399599161
3628.2734,1.1863746791005294,1216.9615967483587
3629.1082,1.1852707866075987,1208.3376540865283
3629.945,1.1840428626577872,1182.8998167281525
3630.78,1.1825564176054142,1150.654413127355
3631.6174,1.1808620607942435,1193.2805618669352
3632.453,1.1793425337038332,1196.9084193934716
3633.2883,1.1785447894735954,1115.395263383995
3634.1262,1.1788966974211648,1180.660651745016
3634.9622,1.180439144586126,904.1264677938209
3635.8005,1.182777747781326,1155.2434299764777
3636.637,1.1852049282182664,1005.7505628397608
3637.4756,1.1870087483822889,1171.8421940173532
3638.3123,1.1877117120628176,1076.601588480383
3639.1492,1.187306136202194,1085.0321685048539
3639.9885,1.186241308925147,1167.7466460515923
3640.826,1.1851750467279707,1186.2372223342336
3641.6653,1.1845343271956397,928.0274343055366
3642.5032,1.184290386045164,1174.5215304357403
3643.343,1.1840809022889212,1028.0383109063353
3644.1812,1.183552701961484,1082.0430892613122
3645.0195,1.1825890189822372,1116.473459832153
3645.86,1.1813281584753201,1015.7806559636139
3646.699,1.1800745068808058,1151.3766761491568
3647.5398,1.1791338982033965,1190.0709566038045
3648.379,1.1786878681554889,1210.2126970043219
3649.2202,1.1786968597748622,968.78114333721
3650.0596,1.1789237842178553,1209.49480911929
3650.8994,1.1790377069979425,1389.7679027628947
3651.7412,1.1788015781385106,1022.7877529060673
3652.5813,1.1782675056363185,1142.073168590795
3653.4236,1.177768837010284,1178.8742611083749
3654.2642,1.1776569421044214,1159.034736826709
3655.1067,1.1779993305408714,1173.9208003143458
3655.9475,1.1785445216924955,1149.6444656000165
3656.7886,1.1789320200868927,1015.4854991512672
3657.6318,1.1789132860276448,935.9533965079768
3658.4734,1.1784502235734895,1037.4698701404502
3659.317,1.1776805581258944,1172.4528580516899
3660.1587,1.1768142154999444,1298.403512210783
3661.003,1.1760239466528748,1045.1269103264758
3661.845,1.1754773025953893,1158.3985435249028
3662.6875,1.1754269341133028,1047.7336283861064
3663.532,1.1762280609638331,1146.7525465397946
3664.3748,1.1781141186272952,1249.517366153786
3665.2197,1.1809546314499277,1087.5211058933407
3666.063,1.184188819421197,888.2174724395688
3666.9084,1.187088849238372,1141.3637039276157
3667.752,1.1889537530637622,1003.4503620222522
3668.5977,1.18931100014956,1052.770588108394
3669.4417,1.1880241243565115,1005.2896256893063
3670.286,1.185443828796931,1136.6352987925602
3671.132,1.182337958798315,998.817413501762
3671.9768,1.1795817620748743,1043.8835179733853
3672.8235,1.1777364658173803,1173.6049234077523
3673.6685,1.17699963194964,1085.3584592125148
3674.5156,1.1773762367196188,1243.0978083852851
3675.3608,1.1788674373297647,1198.7837189888448
3676.2063,1.181409719617059,1089.1567076475706
3677.0542,1.1846779283260804,1015.9439667171804
3677.9,1.187951681553566,1002.7946043825991
3678.748,1.1903557574314618,911.7301045481418
3679.5945,1.1912210484433654,1106.4912480035737
3680.4429,1.1905368812277066,1022.1687841348648
3681.2896,1.1889592797863766,993.0524838632687
3682.1365,1.1873301759113795,1196.5068321388576
3682.9856,1.186061062044099,968.860542031828
3683.8328,1.1849089950446106,912.0439038306748
3684.6824,1.1832404460705772,1082.4993802676754
3685.53,1.1805376582401734,1288.3483120938045
3686.38,1.1766579197706892,984.085207479279
3687.2278,1.1719267804056128,1035.497073049751
3688.0762,1.1669618667267883,961.5751102891697
3688.9265,1.162539895004673,1080.946464029403
3689.7751,1.159426191651158,1180.8485399270025
3690.626,1.158092892677306,1153.670451188774
3691.475,1.158588040393998,1193.0158420669084
3692.3264,1.1605398205482553,965.5216149230445
3693.1758,1.163438207073997,1123.2539559084405
3694.0254,1.1669552390023339,1201.5326737822124
3694.8772,1.1709370811458066,1084.9786547273663
3695.7273,1.1751364192254867,1013.5590212502158
3696.5793,1.179132978037618,1170.7507027459594
3697.43,1.182366372608326,1097.9876789586451
3698.2825,1.1844110218138932,1053.9864051353072
3699.1333,1.1850926289613275,1066.0499152412553
3699.9841,1.1845679308551995,1042.5229225204403
3700.8374,1.1831856096127278,1105.3681587432127
3701.6887,1.1812717907864134,1110.2568344786162
3702.5425,1.1789282593666213,1172.3411480147897
3703.3943,1.176128056126967,1080.481553326629
3704.2483,1.1728777199672982,1158.785201897301
3705.1003,1.1693918693116998,1017.7054603414119
3705.9526,1.1659587025979716,1233.198961107204
3706.8074,1.1628074987876473,1166.0451113681222
3707.66,1.1600796838258016,966.3222849614073
3708.515,1.157853791931608,1135.1087026249947
3709.3682,1.156301098736624,1334.7789867286674
3710.2234,1.1556314422971896,1042.0616896311783
3711.0771,1.155966777240777,1162.9201045944262
3711.9307,1.157115065660476,1109.3630527003597
3712.7866,1.1585008099302603,1313.786221784928
3713.6409,1.1593506780259886,1118.7051306728924
3714.4973,1.1591082917273303,1210.5031107534012
3715.3518,1.1576889193787219,1117.333647856611
3716.2085,1.1554233733280448,1023.4961294280932
3717.0635,1.1528410898603958,1110.044802029338
3717.9185,1.1504185151699058,1070.2879106765886
3718.776,1.1484839650547254,1031.3170036607376
3719.6313,1.1472558943529787,1317.1797340990934
3720.489,1.1469194487728698,1038.9842133706625
3721.345,1.1476767934223417,1096.9284730243078
3722.2031,1.1495416958905593,1174.5590776045574
3723.0593,1.1520282818444567,1205.5566495480164
3723.9158,1.1541709635549184,1214.6504741191463
3724.7747,1.1549898553262556,786.0380312055694
3725.6316,1.1541303685953501,1267.753447539558
3726.4905,1.1520625214968212,1159.917683698912
3727.348,1.149613290442341,1131.8836287022084
3728.2073,1.1472775545078333,1360.8896713687075
3729.065,1.1450323097332924,1045.7651001383208
3729.9229,1.1426226211273638,1076.5364691202083
3730.783,1.1399820309182922,1154.9947765493587
3731.6414,1.1373336854242453,1293.8844840035463
3732.5017,1.1349390000638515,1175.2094491023158
3733.3604,1.132930149231685,1228.0808895736234
3734.2214,1.1312161781375196,1222.2562251517118
3735.0803,1.129570080594383,1450.019805016126
3735.9417,1.1276767651556332,1170.5911047699335
3736.8013,1.1253181259978882,1166.1563431510444
3737.661,1.1225281354426566,1256.1106191190522
3738.5227,1.1196732319624447,1270.2616277045167
3739.3828,1.1172988890974285,1177.0057775589312
3740.245,1.1157365874974394,1322.3523544831903
3741.1055,1.1149156897877113,1081.4431066496006
3741.9683,1.1144541992574686,1276.3199807918363
3742.829,1.1140459891074568,1344.2634763644776
3743.69,1.1137214179019856,1167.2618976142446
3744.5532,1.1137921233308536,1191.5061153270312
3745.4148,1.1145188258106096,1392.1399074747565
3746.2786,1.1157981495843077,1278.4086999367191
3747.1404,1.1171424187063146,1005.3468748360096
3748.0044,1.1180523584519968,1239.5319110322187
3748.8667,1.1184032313636512,1325.6411995646922
3749.729,1.1185335614809664,1243.7721764399548
3750.5938,1.11892168196549,1155.3253190622777
3751.4565,1.1197896951976558,1337.801489319564
3752.3215,1.1209515404942174,1302.969551159911
3753.1848,1.1219431084347637,1099.834261128157
3754.0503,1.1223609743505172,1165.4288320682645
3754.9138,1.1221507522963423,1230.5229707613917
3755.7776,1.121697730510031,1136.7429600663295
3756.6438,1.1215961421563547,1353.596869944122
3757.508,1.1222551155223277,1328.7509744894562
3758.3745,1.1236254821367349,1174.7420410153738
3759.239,1.1252244083184493,1253.5963971524425
3760.106,1.1264374053826136,1278.7020882610507
3760.971,1.1268143835855613,1258.481871531272
3761.8362,1.1262786317152509,1101.8555936596654
3762.7036,1.1250677282021302,1263.754784549705
3763.5693,1.1235189851717367,1170.253735569684
3764.437,1.1218246894660544,1133.2588768363169
3765.3032,1.1200291778721885,1081.0932651766811
3766.1714,1.1181249574737833,1264.5614639300568
3767.0378,1.1161422471768714,1196.9083156640904
3767.9043,1.1140642570252715,1165.5120381604816
3768.7732,1.111814995574304,1192.5125808146404
3769.6401,1.1093803823650403,1347.665235705743
3770.5095,1.1068695770212693,1257.7098513852245
3771.377,1.1045486372804068,1280.3613886796663
3772.2466,1.1027059249734923,1226.2806842992736
3773.1145,1.1016179012889225,1286.8562115732827
3773.9824,1.101447873845802,1233.413024613479
3774.8528,1.1021926629630938,1233.4642988872854
3775.721,1.103661283439549,1257.3428754471902
3776.5918,1.1056164350030784,981.20920604659
3777.4604,1.1078985335754037,1402.0088577884374
3778.3315,1.110470213821352,1207.3317290372818
3779.201,1.1132086474133953,1380.7822038099732
3780.0703,1.115852696546634,1136.2577981802058
3780.942,1.1181410671329368,1169.6355826505398
3781.8118,1.1200271103228994,1143.6157933078075
3782.6838,1.1216764544667037,1063.8930504651735
3783.554,1.1231005567911574,1323.1198280820008
3784.4265,1.1239687958071671,1124.6283671712802
3785.297,1.1238052903110132,1148.4848947702587
3786.168,1.122462860581977,1209.0481574500698
3787.041,1.1202954513108554,1115.482120873086
3787.912,1.1179389856742585,1135.7686164684264
3788.7856,1.1159106564200412,1203.3483687391365
3789.6572,1.1144886015216338,1254.6644514419627
3790.531,1.1136724040279082,1267.7510213680157
3791.403,1.1131975597203574,1194.2901023635116
3792.2754,1.1125479349467715,1164.6665511974784
3793.15,1.111181535124431,1125.0105446317307
3794.0225,1.1088648928434925,1262.707867445998
3794.8972,1.1057562497168203,1312.4567799425486
3795.7703,1.102220076439431,1245.885875504132
3796.6455,1.0984854285344359,1200.2376709546336
3797.519,1.0947076674711933,1071.1046813434511
3798.3926,1.0911720628750021,1201.6616222455646
3799.2686,1.0884410384895553,1394.1747287645192
3800.1426,1.0871121156910266,1472.4482087249098
3801.0188,1.087358530271233,1314.305233137771
3801.8933,1.0888101964537353,1359.010904928648
3802.77,1.0908013804249905,1270.7385177620044
3803.6448,1.0927179217815557,1097.3377287817164
3804.522,1.0942366822769845,1300.8105916255868
3805.3972,1.0953254897515694,1534.2138742166787
3806.2727,1.0962438015755336,1270.9052991270137
3807.1504,1.0974459965080372,1354.7751475084322
3808.0261,1.0993610805748804,1478.603601757949
3808.9043,1.102136202114401,1343.8496801515544
3809.7805,1.1054794150334677,1210.5653534734056
3810.659,1.108904196543749,1128.362799658789
3811.5356,1.112012352176539,1298.4446906068065
3812.4126,1.1147219153934678,1303.7082405179126
3813.2917,1.1171367526332243,1224.4055855604934
3814.169,1.1193078678348891,1125.3826369955082
3815.0483,1.1211344671928005,1334.619757899937
3815.926,1.122362240611998,1142.949513430005
3816.806,1.1227604936121314,1111.4793296579612
3817.684,1.1221889116166819,1338.4839989996533
3818.5623,1.1205366186094687,1330.1563105531845
3819.4429,1.1176260587819973,1132.8563950963558
3820.3215,1.113396852772512,1205.6399279919415
3821.2024,1.1081590042269915,1282.9873345429573
3822.0815,1.1027431306788948,1295.371192263912
3822.963,1.0980303111080163,1225.5134114704942
3823.8423,1.0944859138277832,1311.6841321149045
3824.722,1.0918756525758455,1210.291972079468
3825.604,1.0896128217401242,1402.3832029298235
3826.4841,1.0872381334741696,1360.4990465959368
3827.3665,1.0845821564036446,1258.6254108820087
3828.2468,1.0816583781646054,1386.7322699990834
3829.1296,1.0783659343356087,1368.3594858319477
3830.0105,1.0744788271075023,1323.555524764226
3830.8916,1.0697317352961375,1365.0001214756091
3831.7751,1.06402432989093,1185.6502598946317
3832.6565,1.0575414003142696,1358.2371064475456
3833.5403,1.0505804258271954,1379.6766854766458
3834.4224,1.04361911219591,1419.7832236571182
3835.3064,1.0371932837330788,1366.7433470555166
3836.1887,1.0319560785381052,1453.0998653187748
3837.0713,1.0283741609417214,1531.067280595342
3837.956,1.0265817448563443,1368.180460326653
3838.839,1.0264373633486874,1344.8608195403906
3839.7244,1.0278171336158093,1521.954125287474
3840.6077,1.0308389533351916,1704.474090339476
3841.4932,1.0357427005414024,1492.5389411177944
3842.377,1.0424610632686722,1311.671544001421
3843.261,1.0504789010441646,1411.5965382153297
3844.1472,1.0589405349741343,1368.4959761405353
3845.0315,1.0668883061460632,1394.8794319954634
3845.9182,1.0737035962640968,1213.158242886893
3846.803,1.0792042692130523,1293.6603154847824
3847.69,1.0838632878337566,1309.5501761810676
3848.5752,1.0884441102215126,1293.1326441123595
3849.4604,1.0935262779042687,1225.3251847850531
3850.3481,1.0990399832049291,1126.142755876385
3851.234,1.1042892520530267,1298.1234877956051
3852.122,1.1085883572680482,1298.828172756129
3853.0083,1.1116898734322291,1335.5282405965706
3853.8967,1.113915182523936,1115.4464234311345
3854.7832,1.115691472373443,1215.7348336434281
3855.6702,1.1171958590220517,1176.1539535507363
3856.559,1.11831508883112,1237.7604626199295
3857.4463,1.1189490427905404,1222.355538625698
3858.336,1.1192956445534985,1214.5781614239513
3859.2234,1.11979997658445,1245.4950123452093
3860.1135,1.1208301255114763,1200.1256318987291
3861.0015,1.1222827819052645,1207.3440115187325
3861.8896,1.123508749998288,1188.6726095321083
3862.7803,1.1236547957889507,1200.8248874488354
3863.6687,1.1222604514639403,1195.1539831441328
3864.5598,1.1196081161545,1267.5055036855965
3865.4487,1.1165512587779394,1319.96793208264
3866.34,1.1138676668963414,1221.1535060038152
3867.2297,1.1117916426699084,1286.374025445979
3868.1213,1.109874797004409,1278.7035457862305
3869.0112,1.1073604688758318,1201.2662175138112
3869.9014,1.1036350064763745,1275.316375973217
3870.7937,1.0985463740565429,1242.3707407386182
3871.684,1.0924518316901408,1118.2943205317779
3872.577,1.0858687407263166,1404.0006900694304
3873.4678,1.0792668345559036,1233.3531509414404
3874.361,1.0727753211669728,1409.8689769777143
3875.2524,1.0663862267911757,1181.9708907450974
3876.1438,1.0600469998538522,1223.8934406507058
3877.0376,1.0538011897233257,1340.3937680552704
3877.9297,1.0477174031209264,1367.919280775078
3878.8237,1.0416151928371251,1287.030865406627
3879.716,1.0351962420453749,1449.171659294215
3880.6108,1.0281694984855303,1400.6874441775944
3881.5037,1.0205536630896554,1608.2822339579684
3882.3965,1.0125139737057394,1582.8377432783434
3883.2917,1.0042184804526209,1418.6356903726232
3884.185,0.9957910379145908,1456.5349673058308
3885.0808,0.9871798974475655,1571.6819430155815
3885.9746,0.9784110863578711,1620.2129681474883
3886.8706,0.9695141995611509,1582.5402831028055
3887.765,0.960744756363816,1722.1593365827346
3888.6592,0.9524625799882712,1746.9014129017182
3889.556,0.9451826345885277,1662.894215487129
3890.4507,0.9396424310614447,1791.4577413510644
3891.348,0.9366413852953906,1757.2403900505763
3892.243,0.936912163723853,1604.5196467951948
3893.1406,0.9407099641295185,1921.6143085989015
3894.0361,0.9476063891878802,1516.7893054222207
3894.932,0.9567279130454771,1754.40322380554
3895.83,0.9671776459670609,1748.398711258452
3896.7263,0.978257065611763,1573.7856928685799
3897.625,0.9897063353116045,1456.813982195778
3898.5215,1.001397191668816,1538.8134506465967
3899.4207,1.0134453949337199,1462.2146352414074
3900.3176,1.025783965901369,1753.4076139316257
3901.2148,1.038216708177743,1513.3225484063973
3902.1145,1.0503426584849067,1346.1710268990062
3903.0122,1.0617453203755876,1302.1960128903004
3903.912,1.0724505570607026,1478.3630677345673
3904.8103,1.082675190271785,1268.2880576407047
3905.7107,1.0927510543996375,1335.032939496952
3906.6094,1.1027398533073614,1328.7738080227402
3907.508,1.1125980530199318,1194.9076765015554
3908.409,1.122261405196193,1185.1782527857745
3909.308,1.1316794614004146,1126.0994305062648
3910.2097,1.1409261381883742,1139.1641889549182
3911.1091,1.1498569054432695,1369.236613655147
3912.011,1.1581632696823403,1219.5559509057418
3912.9111,1.1653125035323504,1148.4907476217306
3913.8113,1.171036373809262,1205.9434977796657
3914.7136,1.1755173631289115,1166.4625748588735
3915.6143,1.1792284062824994,1151.3243237508352
3916.517,1.182637767645862,1088.9767384282013
3917.4182,1.185980074718113,995.8974564188978
3918.3215,1.1894726554970192,993.1998766417587
3919.223,1.1933903398838301,1040.2465233470184
3920.1245,1.1979570254062504,1038.392322885811
3921.0286,1.20302370139489,1035.636128273128
3921.9307,1.2079509946312108,1000.0963764694034
3922.835,1.2119736168581665,1027.8402025330424
3923.7373,1.2145320652881917,1012.0246892411404
3924.642,1.2155786752147684,1005.1137573425351
3925.5452,1.2154723124864915,971.444024626853
3926.448,1.2147751734140118,1024.649678468207
3927.3535,1.2140268506789005,940.639812716636
3928.257,1.2136200342847072,1099.1623942782244
3929.1628,1.213666378931099,974.6853287557807
3930.0667,1.2139075081768778,1113.7958392200612
3930.9731,1.213762294947045,974.2922857522321
3931.8774,1.2125841499574153,1009.6022836227539
