wavl,flux,ivar
3566.9744,11.555280352151364,86.94798623431836
3567.795,11.522088411218729,86.27050178391605
3568.6177,11.480869636011427,86.80650131723507
3569.4385,11.440645195249138,92.72857880998761
3570.2617,11.40743164805734,90.38466600259159
3571.083,11.38330657983242,91.22146285373496
3571.9065,11.36623649275231,90.66984329460225
3572.7283,11.352944502521101,87.1429871934062
3573.55,11.34086309420632,88.35074105852809
3574.374,11.328973185886891,88.33447925021643
3575.1963,11.317195079172071,88.33482893406598
3576.0208,11.305330671620009,88.81575695737293
3576.8435,11.293089647684834,91.27279618285506
3577.6682,11.280101091706474,91.69891062300877
3578.4915,11.266099735102728,91.31805064921393
3579.3145,11.250412384135446,93.48316329224033
3580.14,11.23233290562045,89.76808191581634
3580.9636,11.212999553770393,87.68052199130064
3581.7893,11.196850699977318,91.66386335352253
3582.6133,11.19129795937691,91.31372775548536
3583.4395,11.202639283482114,95.61578931365746
3584.264,11.231317465293388,90.51289464902122
3585.0884,11.270143582517399,91.10523846701024
3585.915,11.3072141530674,91.3219151389806
3586.74,11.331302816593222,89.20375691621798
3587.5671,11.337084517333563,89.58717620503451
3588.3923,11.3253922575557,90.49012645638233
3589.22,11.30057676543956,91.99216160572172
3590.0457,11.267742265901546,93.28619876509319
3590.8716,11.231404529162438,90.7495814500794
3591.6995,11.196037573262352,94.67321687890542
3592.526,11.166071008583813,90.6978430484706
3593.3542,11.144084778024391,95.61944932768715
3594.181,11.13026073716553,89.54908536056551
3595.0098,11.122491922054348,96.00955855276673
3595.8367,11.118153510149256,95.12438659363201
3596.6638,11.114970100300425,93.87273135178225
3597.4934,11.111023349857279,94.2993518061705
3598.3208,11.104430626066803,93.44499596143213
3599.1506,11.09367799365152,94.30295674453694
3599.9788,11.078753985560962,94.1088286264433
3600.8088,11.06128849248056,92.61428208472755
3601.6372,11.044017304560901,95.60487875630918
3602.4678,11.029421659784623,95.75596107818944
3603.2964,11.019616383411316,95.24082229800588
3604.1252,11.016144019242812,96.83164398570926
3604.9565,11.019765084402632,96.9818771906958
3605.786,11.029301348358327,93.71003037312921
3606.6172,11.040994368299344,94.45494224155291
3607.447,11.049216737811767,95.02655603039678
3608.2788,11.049006542603452,92.70415869110786
3609.109,11.038279536349846,96.6581772541434
3609.9392,11.018179169395564,95.12603237257319
3610.7717,10.991274045205818,92.59450670332177
3611.6023,10.960034816902354,95.21179815821453
3612.435,10.926168013026784,93.09661367132769
3613.266,10.89232049317848,98.00108431544581
3614.0994,10.862016434998838,102.58686992619715
3614.9307,10.839140037976986,96.79301009321631
3615.7625,10.825330766390984,94.97121690204038
3616.5962,10.81903618664318,100.4602923352106
3617.4282,10.816231991403466,103.13951955840949
3618.2625,10.812967429217867,98.63017696717505
3619.0947,10.807910840913099,99.9634158705158
3619.9292,10.802433858620951,98.63017598550067
3620.762,10.79848925545529,96.09175096381375
3621.595,10.796107110759497,98.93819123990154
3622.4302,10.792981904877587,101.3307899429358
3623.2634,10.78627077676728,99.2681043459553
3624.0989,10.775041661710945,99.4571497567498
3624.9326,10.761626296336004,103.35016416204746
3625.7686,10.750145760913,104.03388957790199
3626.6028,10.743701842118616,99.07175682348766
3627.437,10.741909483755983,98.80900660657119
3628.2734,10.741476914271527,99.21757913145522
3629.1082,10.738765251283805,100.04237517390837
3629.945,10.731917200069907,99.53660867886255
3630.78,10.720906388811853,101.4061215102123
3631.6174,10.706062612269948,100.84689370725627
3632.453,10.687696212027245,101.00035983775352
3633.2883,10.666509707943206,105.02857747820183
3634.1262,10.644240894053874,102.93097038383367
3634.9622,10.623321859890957,102.88258384785719
3635.8005,10.605362999070802,97.15962750046604
3636.637,10.590988448288705,104.24194929912562
3637.4756,10.579555683799807,99.87104720848549
3638.3123,10.569845288099566,100.58031332702262
3639.1492,10.56052495299092,102.0426716127709
3639.9885,10.551132979596257,105.82363744064519
3640.826,10.542532970204341,105.75064175072956
3641.6653,10.536104185979529,103.97147915336072
3642.5032,10.532775591374598,103.48174666508262
3643.343,10.532406585271106,103.80162178582796
3644.1812,10.534204590730141,101.64647973243652
3645.0195,10.537361638536387,103.11116155881423
3645.86,10.5414471654963,100.77856924923802
3646.699,10.546387164608896,106.28066007954598
3647.5398,10.552355803496754,104.98256084293254
3648.379,10.559367082070777,102.46808486764112
3649.2202,10.566972966045576,106.85740901403031
3650.0596,10.573916369450277,99.49204281855542
3650.8994,10.578594900426157,101.40177321940534
3651.7412,10.57979693640575,105.80157886519969
3652.5813,10.577382933823621,104.10029272766928
3653.4236,10.57220576077419,104.01754699238111
3654.2642,10.56552551527222,103.22965162617265
3655.1067,10.558317973898934,101.71968740775326
3655.9475,10.551077650883023,104.3567160347706
3656.7886,10.543798220917777,105.81373279111848
3657.6318,10.536524332254666,109.90652418080417
3658.4734,10.529963693623555,106.69788675399865
3659.317,10.525333294932397,108.56645964528111
3660.1587,10.523724364281865,106.77590622516318
3661.003,10.525352907444159,102.58500618960089
3661.845,10.529578667964998,105.20857818100401
3662.6875,10.535387134959738,108.25054791935413
3663.532,10.541809372761788,104.4793412477943
3664.3748,10.548110199190974,106.91896713470504
3665.2197,10.553899793987414,103.34244017197452
3666.063,10.558623482437161,105.50664959798216
3666.9084,10.56104077142875,102.97623866814145
3667.752,10.559095443032854,106.82159189090159
3668.5977,10.550891643488534,100.42406589929583
3669.4417,10.536052946965327,103.97810379179184
3670.286,10.516213776112327,108.35602027555046
3671.132,10.49461106373565,106.94895881784777
3671.9768,10.475346512706873,107.5628616432364
3672.8235,10.46207607985883,104.05019239420874
3673.6685,10.457060696595919,106.41659768414519
3674.5156,10.459791709806895,107.86743283764885
3675.3608,10.467047951672233,105.8399229487519
3676.2063,10.474695455813997,106.28237892066673
3677.0542,10.480115083440113,105.07403818010584
3677.9,10.483206547365992,103.6228385141154
3678.748,10.485501771948144,107.01458961976437
3679.5945,10.488382457975549,104.90373165718118
3680.4429,10.492220737988406,102.26019202188967
3681.2896,10.49635269420241,111.50655795782973
3682.1365,10.499430480732482,104.43785063670262
3682.9856,10.499687023671166,104.54745201851232
3683.8328,10.495576591799622,101.53733892972117
3684.6824,10.486710636086748,109.76211248225626
3685.53,10.47450851761123,108.67019776166491
3686.38,10.461492376946804,104.19519104498244
3687.2278,10.450121236366718,107.57234519019815
3688.0762,10.441354093367236,99.31581472555175
3688.9265,10.434463759176657,104.97654845262696
3689.7751,10.427628961768274,110.76517771016938
3690.626,10.418830266104191,106.19098964949166
3691.475,10.406784934569352,108.2839069181106
3692.3264,10.39099337381768,107.96630713178291
3693.1758,10.37181511911874,105.61271627072333
3694.0254,10.3500782329774,104.49318965247832
3694.8772,10.327056181103927,110.02412862338902
3695.7273,10.304318481025312,112.56706971825312
3696.5793,10.283009260991626,109.56672712072579
3697.43,10.264135234146659,108.46252658337522
3698.2825,10.248132476254723,110.99584924022602
3699.1333,10.234747366426209,108.87608496506775
3699.9841,10.222587669999982,107.3265296421592
3700.8374,10.210039378579792,108.10115257660121
3701.6887,10.196733310061376,107.98208685000756
3702.5425,10.183719959195786,112.23446971452412
3703.3943,10.172607567164293,110.86577380931757
3704.2483,10.163893242775725,112.18752875750943
3705.1003,10.156903300978964,111.14813142903822
3705.9526,10.150456834568175,111.22961996550048
3706.8074,10.14377502018374,109.45869262413893
3707.66,10.136708334492951,112.13812936047056
3708.515,10.129278936684658,112.0636883216284
3709.3682,10.121374529095387,113.16607178026084
3710.2234,10.112323357097738,114.77789382640255
3711.0771,10.101171060764004,115.02100436576346
3711.9307,10.087188359939931,114.59033406918118
3712.7866,10.070715485697512,113.55159783783746
3713.6409,10.053816235051084,111.91571092052061
3714.4973,10.039492230237007,113.23270078716968
3715.3518,10.030434036644483,113.7694617203688
3716.2085,10.02715390130965,112.41541062102138
3717.0635,10.027747277952756,113.80260600181964
3717.9185,10.02894922576712,113.18476046197685
3718.776,10.027899711582055,113.92451914422375
3719.6313,10.02330234402308,112.47555242758813
3720.489,10.01561981622583,112.13478695528343
3721.345,10.006629651856727,111.98774672982023
3722.2031,9.998232940004224,115.26849332152234
3723.0593,9.991511691142179,116.19818216619525
3723.9158,9.986259843747835,116.92763607016194
3724.7747,9.981560477270904,114.11237647447498
3725.6316,9.976291726867702,114.03628790906765
3726.4905,9.969060691448268,114.41974827848996
3727.348,9.958535220503151,108.90285838342388
3728.2073,9.944307325021526,115.32416175443475
3729.065,9.928008343686043,120.09059970650915
3729.9229,9.912649669804063,116.97864083069568
3730.783,9.900907041843725,121.36790528254775
3731.6414,9.893615846131672,117.05754557271906
3732.5017,9.889691573632241,119.34465575073364
3733.3604,9.887714848113117,120.65772387426111
3734.2214,9.887088046653572,118.81165180366048
3735.0803,9.888024732577186,120.1308483699743
3735.9417,9.890598683231882,118.68513083779136
3736.8013,9.894034327676145,117.2481921014395
3737.661,9.896886145094399,121.02415924411295
3738.5227,9.897714856062535,115.19054235285654
3739.3828,9.895768020531479,119.04174150013341
3740.245,9.891301419220309,119.50902216654062
3741.1055,9.885530091616884,115.89300801415133
3741.9683,9.880211427132044,116.35592696748938
3742.829,9.877243829457976,118.11308712924992
3743.69,9.877879919416232,122.1484447894236
3744.5532,9.88200235346309,116.42468571928161
3745.4148,9.887578374144466,115.88562738959115
3746.2786,9.891052998113961,118.00755369468075
3747.1404,9.888576388150046,117.1856964343337
3748.0044,9.877880744269508,117.5756916677484
3748.8667,9.85982854662878,118.26842798060628
3749.729,9.838338146056582,123.69891591630989
3750.5938,9.818693330643116,122.54419687429677
3751.4565,9.805247138357132,118.60981303147969
3752.3215,9.799292170079346,118.53369847542
3753.1848,9.799044441275772,120.27444005009453
3754.0503,9.800631166548268,121.36016224003937
3754.9138,9.799991558867037,117.53633868941745
3755.7776,9.794641458995565,119.67923420838002
3756.6438,9.784444009735852,125.5646004948222
3757.508,9.771360105076985,121.80643105706442
3758.3745,9.758132678175482,122.12204870072856
3759.239,9.747318309825486,118.87580420985651
3760.106,9.740189073267414,124.05018698122231
3760.971,9.736556451520592,124.20017771560762
3761.8362,9.734873089454798,123.15691878654782
3762.7036,9.73310324222081,120.01100184206855
3763.5693,9.729656769816987,124.14013723438907
3764.437,9.723940817591606,122.40351943711454
3765.3032,9.716419215544473,125.684166132181
3766.1714,9.708090814339126,123.35892698209506
3767.0378,9.70008865681161,122.12735747088102
3767.9043,9.693224329475246,119.09392822910503
3768.7732,9.687901873017394,122.98582042205096
3769.6401,9.684153907958137,126.08386786610204
3770.5095,9.681771352813506,124.77029795182358
3771.377,9.680871018516651,122.74183353674027
3772.2466,9.68218292159583,129.28406226789377
3773.1145,9.686522119454128,124.88696492995231
3773.9824,9.693458626477849,126.29334620082537
3774.8528,9.70053707088822,121.70038124579679
3775.721,9.704149379617645,117.30435813704989
3776.5918,9.701774264211465,119.22902455803889
3777.4604,9.693375893244568,125.00557949939011
3778.3315,9.681108121614008,125.48063121379752
3779.201,9.668201264729609,119.76360516606015
3780.0703,9.657613136709397,123.55753535542041
3780.942,9.651307529820583,126.46864058140177
3781.8118,9.649666332465074,128.4101601849939
3782.6838,9.651150293354323,124.07032531216556
3783.554,9.652835494418186,126.82304369742133
3784.4265,9.651631444488304,119.87158643843719
3785.297,9.645652556528841,125.49215095773242
3786.168,9.635014101024554,123.83184976949863
3787.041,9.621587243390335,123.99052104974015
3787.912,9.607989763007877,124.81201677276822
3788.7856,9.595909638448914,125.73824846542895
3789.6572,9.585505885625322,126.25420825988066
3790.531,9.575514798116762,123.1079501268711
3791.403,9.564736067558247,126.48078692248222
3792.2754,9.553045855790067,130.8845077215887
3793.15,9.541614328181355,127.86411711429122
3794.0225,9.532109615612201,125.62706342981576
3794.8972,9.525442598631681,128.00785900658948
3795.7703,9.521531242343414,128.6333685690314
3796.6455,9.519564247905413,134.59482591133184
3797.519,9.518668580438748,130.6784959022741
3798.3926,9.518090672984904,130.17031494306437
3799.2686,9.517084335393227,125.95516424525299
3800.1426,9.514819361809161,131.81036951571812
3801.0188,9.510525955169136,128.3082042741015
3801.8933,9.503907632137013,130.35883012847532
3802.77,9.495372781255371,128.54250188748233
3803.6448,9.48612934134526,133.3425781951919
3804.522,9.477531270523277,130.66365505007948
3805.3972,9.470484629104185,131.76530372484663
3806.2727,9.464856989978816,130.9568256976319
3807.1504,9.459875822118473,132.42143217390495
3808.0261,9.45493113175448,131.51446323410013
3808.9043,9.449928718873245,127.6584088537371
3809.7805,9.445160870370502,130.60354976153172
3810.659,9.44089150628772,128.94376549741725
3811.5356,9.437519599295882,137.76009792784745
3812.4126,9.43551826111958,127.48062519372392
3813.2917,9.434801367151358,128.86185307453422
3814.169,9.4338540435238,127.78694210230077
3815.0483,9.429908254297944,132.453980104052
3815.926,9.420552708348445,128.33461404396485
3816.806,9.405321959877396,131.39991463299143
3817.684,9.38616895783299,129.72795748839107
3818.5623,9.366014501711001,135.58771346004167
3819.4429,9.347233606251132,134.23859637014115
3820.3215,9.331152853237732,133.60784982423408
3821.2024,9.318077940339377,133.65866155157002
3822.0815,9.308087859457782,135.6944938117973
3822.963,9.300739676358734,133.41181403358
3823.8423,9.294935709367543,136.60317749358117
3824.722,9.288911967407067,134.10995344515683
3825.604,9.28090425504547,128.76553322153106
3826.4841,9.269760329684626,134.23732201367838
3827.3665,9.254940180319913,133.81181461529124
3828.2468,9.236705186236316,137.6510877996748
3829.1296,9.21582126354626,131.92043645665126
3830.0105,9.193784001192876,138.006821862383
3830.8916,9.172203407830182,139.03229987153702
3831.7751,9.152832648838785,137.26598615636064
3832.6565,9.13772649383386,138.61019788709785
3833.5403,9.128578949864327,140.90238256870776
3834.4224,9.126120047243807,143.50708590846733
3835.3064,9.129179240035858,138.14199974344623
3836.1887,9.135045521920816,143.8744812758043
3837.0713,9.140844988385215,138.3437704771429
3837.956,9.145051325037418,137.5411397077794
3838.839,9.148205627448611,140.11347765020216
3839.7244,9.15250041911404,138.61872675051976
3840.6077,9.160222391698634,140.66432556089347
3841.4932,9.172279484268975,139.61769179508704
3842.377,9.18740928299938,140.01584620719154
3843.261,9.202941791819082,135.87915648361394
3844.1472,9.215936636035083,140.7110246977734
3845.0315,9.224159556421869,137.7278118997561
3845.9182,9.226923735176594,137.4785978883728
3846.803,9.225166862620565,139.0302584023068
3847.69,9.221114935245371,140.33285385289275
3848.5752,9.217251088608347,137.9664728270467
3849.4604,9.215197213474168,141.66938728444924
3850.3481,9.215347166780916,138.47572727262687
3851.234,9.217228272066624,138.24843589953218
3852.122,9.220242166114357,133.59039242554735
3853.0083,9.224208669802191,138.13357236197328
3853.8967,9.229470672389567,134.25664095362842
3854.7832,9.236330280954697,138.17669372646705
3855.6702,9.244573065670139,141.22232094301538
3856.559,9.253323981525416,133.1504711057195
3857.4463,9.261374775594632,138.2468631059041
3858.336,9.267755165466275,139.02885428698164
3859.2234,9.27173484249297,137.7934271501776
3860.1135,9.272815285755172,139.27873503221278
3861.0015,9.270612894911723,139.28902290560953
3861.8896,9.265153201258014,136.16651873317812
3862.7803,9.25709285423863,135.4116493172036
3863.6687,9.24759095673171,139.3267171135349
3864.5598,9.237385789514837,139.31879514464129
3865.4487,9.226326443263217,134.54801838311107
3866.34,9.213295060819714,138.6162741244795
3867.2297,9.197350685180979,136.5505726426498
3868.1213,9.178310106526833,145.99207769304815
3869.0112,9.157039736973696,139.13262942684509
3869.9014,9.134582768922341,138.90841677387823
3870.7937,9.11168744950615,137.15106071890364
3871.684,9.088720759666828,137.04978503010452
3872.577,9.065285799894882,143.17457278160276
3873.4678,9.04094349536037,145.46393610906202
3874.361,9.015275523129539,146.0105970541142
3875.2524,8.988721010856333,144.5105522682218
3876.1438,8.961875396112658,147.16984284517793
3877.0376,8.934961370103064,145.49098933160315
3877.9297,8.907628712418433,144.96469232936582
3878.8237,8.87879066737892,146.3705750055792
3879.716,8.847835093646399,149.70487242518388
3880.6108,8.814698642757662,149.74443918138692
3881.5037,8.78038072077006,154.91328510457652
3882.3965,8.745875340604643,149.0497876609595
3883.2917,8.711947723927478,155.65335676927813
3884.185,8.6792796552172,152.88896923045763
3885.0808,8.647789966733404,155.81309473488443
3885.9746,8.617226761650079,155.22789429636725
3886.8706,8.587025515491307,164.627079345854
3887.765,8.558000285394328,156.6598174264305
3888.6592,8.532788562305237,159.42151158083442
3889.556,8.515625736421828,166.72553713369462
3890.4507,8.51053469426757,159.5822566049037
3891.348,8.51898263512962,157.02394572814035
3892.243,8.539214225474195,160.52669136295629
3893.1406,8.56744093451946,162.06157445369993
3894.0361,8.599330827047902,157.15257197800744
3894.932,8.632091654788992,153.10863117797527
3895.83,8.664871375492757,156.73133436203128
3896.7263,8.697981343534263,154.3833766446789
3897.625,8.732253006086182,156.02389573312968
3898.5215,8.76745457482231,152.84817904861194
3899.4207,8.803109874898556,148.48801329090955
3900.3176,8.838610726522806,155.30180533594537
3901.2148,8.874467420535066,148.99497159162271
3902.1145,8.911625598159528,147.07441452112593
3903.0122,8.950242360095048,145.19642976963686
3903.912,8.989731563560115,141.95217590904187
3904.8103,9.028253250205516,143.28532903364766
3905.7107,9.06397637862769,137.4339588463733
3906.6094,9.094911137869977,141.41849051606872
3907.508,9.119788407068617,137.732762580403
3908.409,9.138157400398356,144.650653037367
3909.308,9.150662751719526,137.9457180516067
3910.2097,9.159341844299295,142.22795812032442
3911.1091,9.16679807133234,136.52675530828355
3912.011,9.175328047569717,138.68682387744624
3912.9111,9.18574533151818,135.66827790634323
3913.8113,9.197180430847125,135.83054779783913
3914.7136,9.207599120859452,136.2236421959935
3915.6143,9.214851277672308,134.0345640084981
3916.517,9.217861113560062,136.9455224678956
3917.4182,9.216970996722898,136.88856443868025
3918.3215,9.213814672749338,137.97526524564074
3919.223,9.210722335662346,137.4463315773142
3920.1245,9.209933385277235,135.449729171555
3921.0286,9.213030364271772,136.7170698853949
3921.9307,9.220635790225089,134.00310963995423
3922.835,9.232528312656623,135.25666894947358
3923.7373,9.247576886453864,134.69614224788936
3924.642,9.263925407616577,137.1489030431564
3925.5452,9.278846347172783,135.72884706670447
3926.448,9.289568239216726,132.75176162478735
3927.3535,9.294093897529223,136.96887872040278
3928.257,9.291942317428191,134.36828978755452
3929.1628,9.284242145290104,138.10271108591104
3930.0667,9.273012334687362,134.30003714655786
3930.9731,9.26005820169491,134.4988347551123
3931.8774,9.246607658848925,135.10132036080444
3932.782,9.233113559342463,138.67562359728413
3933.6887,9.219666619260286,136.77837661974542
3934.5938,9.206179874091713,134.92731604534526
3935.501,9.191967971496743,142.2502607774524
3936.4062,9.175804820736431,139.3017600548558
