wavl,flux,ivar
3566.9744,5.223221526883282,202.58011954886197
3567.795,5.220015414132031,205.89675332473678
3568.6177,5.214494018970779,205.0683506227893
3569.4385,5.2063448731236335,211.1862552905252
3570.2617,5.195436441154723,208.18953293874583
3571.083,5.1825554845521715,224.1558416485457
3571.9065,5.169483273867033,210.97878496043288
3572.7283,5.158818011719057,211.50339390983217
3573.55,5.152674515020419,208.53765889553551
3574.374,5.151677836995145,232.360920669356
3575.1963,5.154604851254177,221.30837329536948
3576.0208,5.159209815413205,238.2507818654378
3576.8435,5.163538030133853,204.39125840504113
3577.6682,5.166807244396513,206.45586931886453
3578.4915,5.1691681220804275,212.0224305742844
3579.3145,5.170972840118333,208.77749707968349
3580.14,5.172002150046264,217.9569416625085
3580.9636,5.171239879294878,243.0650974755863
3581.7893,5.167423083966422,216.99072181304177
3582.6133,5.160101391123832,217.41163563461296
3583.4395,5.15024378540265,228.82765556307922
3584.264,5.139973609814205,225.3439590036398
3585.0884,5.13119826295242,219.76141037880834
3585.915,5.12464270123222,231.09006858453552
3586.74,5.1197181125834685,233.53517481337036
3587.5671,5.114974178080142,232.41515745889262
3588.3923,5.109058251629403,207.24617479768153
3589.22,5.101350707451515,224.54553629646784
3590.0457,5.092354260651663,240.65707117750222
3590.8716,5.083117459291066,219.0790345531619
3591.6995,5.074490845972865,228.8510796454605
3592.526,5.066660452744512,217.37459536353765
3593.3542,5.059117693533681,232.29433553255237
3594.181,5.051249864955063,221.877888292492
3595.0098,5.042600364226872,226.62850284803278
3595.8367,5.033222453562811,242.35285380116522
3596.6638,5.023633283881799,233.34011558104092
3597.4934,5.01490117676209,223.74874106273413
3598.3208,5.00845625955179,228.2540911195268
3599.1506,5.00528039397125,221.54182987210717
3599.9788,5.005319170361071,245.0991841173303
3600.8088,5.007248031448838,222.87946793628487
3601.6372,5.009115501120162,235.0502835328997
3602.4678,5.009280340944534,242.6536651422135
3603.2964,5.00697158093523,222.58233607093126
3604.1252,5.002425068572653,238.62661005663696
3604.9565,4.996785473928911,239.1713800466657
3605.786,4.991863550196021,212.39210681208294
3606.6172,4.98930154972808,254.22508206637204
3607.447,4.989734504119753,230.25983281346905
3608.2788,4.992327898258839,232.2615014726875
3609.109,4.995195237598571,234.79220381690493
3609.9392,4.996331467116783,220.04597665207658
3610.7717,4.9943886397385215,240.403595030316
3611.6023,4.989155512129822,235.14241344408597
3612.435,4.9815462181150325,213.92108649427223
3613.266,4.973300958367639,235.6198799982614
3614.0994,4.966172113666647,236.55687290183366
3614.9307,4.9613580833502215,224.17003431974325
3615.7625,4.958900091725481,255.44264072940624
3616.5962,4.957683908824211,222.28606930958287
3617.4282,4.955933705198113,227.63995474195585
3618.2625,4.9522092528355595,238.90816948582608
3619.0947,4.946346627615123,237.66578775726674
3619.9292,4.93945163585925,231.01397775593915
3620.762,4.933223025845366,232.0928110993553
3621.595,4.928867288811677,237.5373871723033
3622.4302,4.926610172477972,244.30961087608884
3623.2634,4.925712851917574,240.4860991003022
3624.0989,4.924833174128871,247.81920230484292
3624.9326,4.922639728209004,237.6898816508424
3625.7686,4.918429219662901,247.67974082428398
3626.6028,4.912672786204181,238.91271736153456
3627.437,4.906958353666236,246.15441511126414
3628.2734,4.903315917267278,234.07773449643298
3629.1082,4.903089150044286,244.68720548530342
3629.945,4.905928014642532,246.0801949304809
3630.78,4.909757683882524,230.5882173821667
3631.6174,4.9119626354489725,236.9124120793129
3632.453,4.911039577826717,246.6183758584357
3633.2883,4.907579498660193,232.33590619726115
3634.1262,4.903507457609609,249.18014339398587
3634.9622,4.900382346133318,250.11547877978077
3635.8005,4.898155654985087,231.66807162753193
3636.637,4.895612667661955,209.64534962130415
3637.4756,4.891550786152262,233.53212031040238
3638.3123,4.885620208254944,225.3900645924423
3639.1492,4.878130377016685,243.238260818108
3639.9885,4.869592491425558,250.59265300490117
3640.826,4.860591486026053,262.2206510779092
3641.6653,4.851772819165374,243.67574252644386
3642.5032,4.8441939146102335,251.1627210597051
3643.343,4.839029987930915,243.01224527649416
3644.1812,4.8370648621666925,230.25322795965204
3645.0195,4.83796971406132,258.57203449079134
3645.86,4.840419944313308,260.7411853354645
3646.699,4.842928358674065,273.5185310880907
3647.5398,4.844848459302541,252.83469302606284
3648.379,4.846518195586903,251.43571463226274
3649.2202,4.848626066508144,239.2841487787563
3650.0596,4.851375445866497,244.14900777603683
3650.8994,4.854304477037495,246.4202815529693
3651.7412,4.856710195135889,250.30566925862414
3652.5813,4.858285375313777,259.15308117809496
3653.4236,4.8594745060770554,244.73465651721253
3654.2642,4.86120969199891,256.33263662843615
3655.1067,4.864337359122017,239.00385502005466
3655.9475,4.869016541972378,237.08444552201246
3656.7886,4.874574166329734,232.79791859590375
3657.6318,4.879775250714796,238.50098655642347
3658.4734,4.883432872410346,264.2537985039848
3659.317,4.885194237057282,240.6692132217158
3660.1587,4.885775197905051,250.2496922583642
3661.003,4.886575705053796,247.00770386240632
3661.845,4.888756849908232,252.77738352946523
3662.6875,4.89258150001301,256.3346523662782
3663.532,4.897505676214548,226.99424731551
3664.3748,4.902814640962487,230.06679675388352
3665.2197,4.9081901827077985,243.91000051250032
3666.063,4.913356724435832,239.82202530286068
3666.9084,4.9175200965609545,247.25625919142877
3667.752,4.919170655478125,231.9558454290324
3668.5977,4.9170148985640765,242.00989675918535
3669.4417,4.911110574451163,232.64133970796257
3670.286,4.903138048349295,249.21478319718926
3671.132,4.8953817113266505,256.0794393718327
3671.9768,4.889272435052837,240.217962165188
3672.8235,4.884558214774301,237.87278413062705
3673.6685,4.880044295917245,227.01378056183563
3674.5156,4.874778221179277,254.30783726107705
3675.3608,4.868831876893571,253.4145393955843
3676.2063,4.86286115055218,253.11119849498556
3677.0542,4.857384076999122,276.93306287816364
3677.9,4.852484574777775,235.55472152886125
3678.748,4.84796574400895,248.2401003962182
3679.5945,4.843884227752678,254.10641107592335
3680.4429,4.840601714860257,241.54517808630854
3681.2896,4.838569149566067,262.055377102943
3682.1365,4.837827784089842,255.0174288564951
3682.9856,4.837947493306257,249.88084578060085
3683.8328,4.8385031062366535,233.0488538598291
3684.6824,4.839676917833919,242.71981530739427
3685.53,4.842195235250674,237.5942594461161
3686.38,4.846579664535803,240.94224598365844
3687.2278,4.8523638897066075,258.01118218000084
3688.0762,4.8582555616709096,232.70733607166028
3688.9265,4.8629346296009,226.67340088174706
3689.7751,4.865821201693174,251.35367810835837
3690.626,4.8672087677021105,222.92111806142748
3691.475,4.867635612313459,239.21898173735602
3692.3264,4.867288126727649,262.03636440153275
3693.1758,4.865769813454896,261.2802025630743
3694.0254,4.862325179943522,236.95128783158526
3694.8772,4.856326009039433,240.19429555519548
3695.7273,4.847890785693362,259.27022010373224
3696.5793,4.838058800730609,250.50949359066396
3697.43,4.828616249152633,249.38674830888274
3698.2825,4.821103522675151,258.05019383821156
3699.1333,4.8160276023938025,251.66699226150823
3699.9841,4.81237357914403,253.71447872523157
3700.8374,4.808208910516779,240.31513755596842
3701.6887,4.8019194295488585,244.89157511983885
3702.5425,4.793130620632099,256.50114111520094
3703.3943,4.782892147676156,248.73754086437546
3704.2483,4.772693285810324,279.65316996802864
3705.1003,4.76374126369302,249.36211154501294
3705.9526,4.756396427087038,239.99350041544926
3706.8074,4.750384949216411,262.50075202118927
3707.66,4.745179846223424,249.42434517996654
3708.515,4.740269032938932,253.9138609462021
3709.3682,4.735563296907268,257.80800838265486
3710.2234,4.73138475245124,242.66538938554302
3711.0771,4.728356791733628,257.6304343149386
3711.9307,4.726951589210308,255.62514206406073
3712.7866,4.727126626014493,265.9509203643776
3713.6409,4.728132696992711,253.1945330628299
3714.4973,4.728747933940522,245.63552974967388
3715.3518,4.727915114112119,240.46149801465234
3716.2085,4.725438378556476,256.0841099635959
3717.0635,4.722209104853333,249.59749905364126
3717.9185,4.719647551013459,266.80332213240763
3718.776,4.718790746251968,253.1422656142989
3719.6313,4.719638942094582,270.181954959274
3720.489,4.7212255968661045,281.20447582730355
3721.345,4.722266564631041,251.36716233105727
3722.2031,4.721795335553901,251.5311908691981
3723.0593,4.719341650557702,249.83114365746
3723.9158,4.714836623415595,266.2034151674993
3724.7747,4.708528126208747,249.63222700289526
3725.6316,4.701023898098491,252.76661367705287
3726.4905,4.6930590837989685,269.5080042255797
3727.348,4.6854165470780025,253.60462480370776
3728.2073,4.678559696765175,262.82452122660567
3729.065,4.672504556988794,280.44035370651295
3729.9229,4.666653074528578,261.360954950316
3730.783,4.660187280029054,244.07044649755863
3731.6414,4.652745149041589,259.35390000241574
3732.5017,4.644713562433056,266.3614613731603
3733.3604,4.63710496596338,266.9867315894104
3734.2214,4.630702602932363,268.0418922468713
3735.0803,4.625632066305109,254.83251407750612
3735.9417,4.621341342496443,268.0356761225657
3736.8013,4.617374119953623,280.64927517360974
3737.661,4.613824777402666,266.9483844218856
3738.5227,4.611251107589775,263.3642591586217
3739.3828,4.610046015114722,270.2700870876657
3740.245,4.609844928226605,270.38643087842297
3741.1055,4.609574343115741,265.3572438622121
3741.9683,4.608021652945262,260.83207519367386
3742.829,4.604570544076148,269.53464719117653
3743.69,4.599581352647021,266.0221302158288
3744.5532,4.594300154677543,265.43089636252506
3745.4148,4.590423486793254,270.303086547868
3746.2786,4.589306096150855,285.99818379234927
3747.1404,4.591356485529747,268.0803048923734
3748.0044,4.59573954160654,267.79972492540213
3748.8667,4.600644072757315,293.8749218739438
3749.729,4.604087567187973,272.2840784696604
3750.5938,4.6046946705327905,265.27713755046597
3751.4565,4.60220388234166,274.98286689990664
3752.3215,4.597485638892616,258.9706990837499
3753.1848,4.592136256036793,267.51553161583615
3754.0503,4.587659249397861,276.07002746547954
3754.9138,4.584780708250275,268.5166499610112
3755.7776,4.582995863586646,265.32864858687327
3756.6438,4.580890971244849,297.20464593357383
3757.508,4.576973884872803,267.0040445585763
3758.3745,4.570539654439595,283.58569312583353
3759.239,4.5622203018094964,282.5587227812501
3760.106,4.553602134778036,280.2888399364546
3760.971,4.546541259591318,300.2173012006402
3761.8362,4.5421600433101945,283.7383887061663
3762.7036,4.540593727726356,271.33462139836604
3763.5693,4.541205418082497,292.69228843272447
3764.437,4.543004977357969,272.9964917362717
3765.3032,4.54491423424573,299.2751990750094
3766.1714,4.545864718996049,279.814108525372
3767.0378,4.5449266970256215,269.25482883665467
3767.9043,4.541677347567001,277.32432619301056
3768.7732,4.536494096576123,287.80016331693207
3769.6401,4.530540641158601,295.838704966582
3770.5095,4.525136002385563,302.96029548237664
3771.377,4.521232713811164,278.37687432545374
3772.2466,4.519028125675158,276.17753293202185
3773.1145,4.518201750599105,292.21874611459776
3773.9824,4.518317130155659,277.0658497809702
3774.8528,4.519275160138125,279.7146669887789
3775.721,4.521364417431294,285.37094613407027
3776.5918,4.524873494513741,273.9549595966767
3777.4604,4.529507268916813,289.19461398431173
3778.3315,4.534407439255402,277.5252514072401
3779.201,4.538612841466096,282.80703058806586
3780.0703,4.541705746152931,270.75929422818774
3780.942,4.543797408366678,292.738345360138
3781.8118,4.545160867494009,276.523248825366
3782.6838,4.546061972734859,277.6427515901178
3783.554,4.5467934955981,290.1507924388961
3784.4265,4.54761812975768,288.71344330788725
3785.297,4.548420950228484,270.0359563253215
3786.168,4.548591416795427,291.3019092605964
3787.041,4.547372994071129,285.42654335763245
3787.912,4.544383307991447,288.8270466367858
3788.7856,4.539736456928203,287.6992753155431
3789.6572,4.533909073520608,288.23057783246287
3790.531,4.527416385467574,262.46870024945235
3791.403,4.520707035961958,284.0381709742185
3792.2754,4.5137754346332635,282.53233812125063
3793.15,4.505997410067638,282.56227320043996
3794.0225,4.496476684442831,258.85992816466205
3794.8972,4.484719204836257,306.87227614820563
3795.7703,4.471538845828577,309.1791361575917
3796.6455,4.458800767734566,294.89343669356384
3797.519,4.448764504895498,290.44944427196737
3798.3926,4.442846267405214,303.8035684995751
3799.2686,4.4412464876593685,283.9684794602237
3800.1426,4.4431618441252505,280.6431788302418
3801.0188,4.447341310224494,286.50609040068844
3801.8933,4.452533222421546,285.4493959369085
3802.77,4.457786165287792,303.69276589911726
3803.6448,4.462489145155073,309.25070096661625
3804.522,4.466540007671232,286.03558427933217
3805.3972,4.470209525986475,283.83592570521114
3806.2727,4.4739693651636925,305.56199899336076
3807.1504,4.478102517230049,300.0919552037855
3808.0261,4.482458867893086,290.3248924017109
3808.9043,4.486615605586969,287.9294855559586
3809.7805,4.4900460898054915,288.74631880917747
3810.659,4.492312464701977,284.9758693613917
3811.5356,4.492959771244834,285.96600276240264
3812.4126,4.491669880099913,289.1145332906619
3813.2917,4.488649978758385,281.12639776044864
3814.169,4.484973046702659,287.44123420690795
3815.0483,4.482113011214147,295.6952416325933
3815.926,4.4809709323361115,286.06066850305217
3816.806,4.481083543709037,266.7553108139026
3817.684,4.480887356702917,278.2684379865216
3818.5623,4.478698828832724,287.1535099586348
3819.4429,4.473603644570996,293.49380275464677
3820.3215,4.465804751716416,313.29879073566383
3821.2024,4.456172994989186,291.75336192427307
3822.0815,4.445690726309199,294.7426113623977
3822.963,4.434692686265254,301.083391657677
3823.8423,4.422931603621438,287.28930859504084
3824.722,4.409838070562982,294.1670751127566
3825.604,4.395236548991876,303.95212766559155
3826.4841,4.379789272808569,300.2544622918083
3827.3665,4.364429104396255,303.964177833924
3828.2468,4.349943646762049,315.9209947453743
3829.1296,4.33622096092218,303.86509117698245
3830.0105,4.322690165258131,289.7775213561321
3830.8916,4.308638819863764,308.4782308022832
3831.7751,4.293744792087798,319.3318581565408
3832.6565,4.278262714807647,303.3276034893043
3833.5403,4.262668956442114,319.05775784434024
3834.4224,4.24801149621897,309.42555151581007
3835.3064,4.235707923968692,321.4973777647656
3836.1887,4.227599136828539,329.1427334487523
3837.0713,4.225179943855661,323.79884143685985
3837.956,4.229011449562295,319.67827933742757
3838.839,4.238241124764784,321.3542153396846
3839.7244,4.250954042435802,327.15230007690576
3840.6077,4.264904712207303,319.29250137811516
3841.4932,4.278720463335301,311.56089032174447
3842.377,4.2921559049700875,308.0138069923653
3843.261,4.306022181255069,295.973797290355
3844.1472,4.321207507145996,318.2521424244874
3845.0315,4.337619460644909,302.32589092660027
3845.9182,4.3541243960456395,299.91323868658014
3846.803,4.3688848954604795,310.6828555502913
3847.69,4.380845686028161,307.8691687815852
3848.5752,4.3902338491258845,317.37092771552113
3849.4604,4.398517007437679,296.96116603103576
3850.3481,4.407339650303021,315.0507048999405
3851.234,4.417498936469772,287.5640296208016
3852.122,4.428708078084153,295.99144591771733
3853.0083,4.43961350812407,286.9762106293334
3853.8967,4.448638026262248,285.8354080104029
3854.7832,4.454583817108941,280.4055957311755
3855.6702,4.457328172720993,283.66851453725354
3856.559,4.45760939427668,305.2212949095505
3857.4463,4.456372381728755,298.7721919111614
3858.336,4.454143186188171,294.2550342334305
3859.2234,4.451089897964659,298.58121291054516
3860.1135,4.447527513563724,291.0843688211616
3861.0015,4.444301125178053,301.0876237734074
3861.8896,4.442310212772521,295.44123354438597
3862.7803,4.441725587463533,305.046611681505
3863.6687,4.441573759979457,302.53673516110854
3864.5598,4.440230494469668,286.5659506312954
3865.4487,4.4364890250111975,287.11887825159647
3866.34,4.430220535183418,295.75289438260904
3867.2297,4.4222397691111635,297.8074681657627
3868.1213,4.4133390257408545,295.48667602527706
3869.0112,4.403672798764499,290.251145595753
3869.9014,4.39259410126347,300.2652905875009
3870.7937,4.379275795117104,295.8783356583699
3871.684,4.363460966763894,291.4454604579852
3872.577,4.345441988188934,307.5680023030739
3873.4678,4.326091286647208,298.3842503437202
3874.361,4.306057101450388,316.1588738800795
3875.2524,4.285848491261846,323.4225623273697
3876.1438,4.265533881536035,312.0492880886779
3877.0376,4.245108283363646,319.62430116963014
3877.9297,4.224834173114832,323.9932856288871
3878.8237,4.204829622252519,314.67902989349164
3879.716,4.18510095345006,341.8439926325479
3880.6108,4.164939536058737,342.3483870621408
3881.5037,4.143387846236623,340.35682188372607
3882.3965,4.1194445629031895,323.8573312505713
3883.2917,4.092809233872705,352.7402529700334
3884.185,4.064326136580706,337.59770347345966
3885.0808,4.035072195898441,364.30772863641766
3885.9746,4.006234774317465,355.8916328290092
3886.8706,3.9783416834694143,363.90858206520176
3887.765,3.9522379090818793,362.47934059388984
3888.6592,3.92927456399216,392.45184848425686
3889.556,3.911633529794583,370.2341315166037
3890.4507,3.901890103066451,388.38066072090135
3891.348,3.9018667954963715,386.2731761606585
3892.243,3.912105412205489,376.930567788176
3893.1406,3.9316820845768965,389.0414563548098
3894.0361,3.9583250672337127,370.6754312076024
3894.932,3.9894430674616395,356.4635533781918
3895.83,4.022818123839714,365.7187669176548
3896.7263,4.056819912110839,354.74073187411443
3897.625,4.090938763959262,335.09778146541015
3898.5215,4.124670527215951,351.86255124559864
3899.4207,4.157825715725321,334.97779312993384
3900.3176,4.189854896253386,343.95091470078864
3901.2148,4.22086430453579,321.5526392605824
3902.1145,4.25151397446614,323.6571165146146
3903.0122,4.282439748995218,318.81962313383906
3903.912,4.314121990716182,310.0009787021685
3904.8103,4.346037092157958,298.6625460693412
3905.7107,4.3775638397677685,299.2178437557495
3906.6094,4.4079926583985785,307.67567361337484
3907.508,4.4372006412856,284.33172354489915
3908.409,4.465220937381663,298.19785457212345
3909.308,4.491731835956501,290.73905250156884
3910.2097,4.516435296184108,274.5774640634778
3911.1091,4.53881153015671,280.60420633510046
3912.011,4.558934517597373,266.1885963103981
3912.9111,4.577150799709724,276.0828176038272
3913.8113,4.594198980487746,271.31561817003285
3914.7136,4.610602212263039,279.9391267549595
3915.6143,4.626186822196758,274.3939028958733
3916.517,4.640356091589284,265.2628306725637
3917.4182,4.652232460277468,270.09545979374286
3918.3215,4.66139159046771,260.3411893793501
3919.223,4.667953373428638,254.2768713587977
3920.1245,4.6726961975941945,260.1952761976612
3921.0286,4.676625686731058,264.25525419137455
3921.9307,4.680489913525683,271.2394768196269
3922.835,4.684509028264892,271.34220235152765
3923.7373,4.688305145032243,262.20502593469774
3924.642,4.691275739224272,269.94609640307226
3925.5452,4.692899979698159,260.5425857402564
3926.448,4.693020017957109,252.36636603316816
3927.3535,4.691808928299812,262.7937653035412
3928.257,4.689607104833011,254.54720991088405
3929.1628,4.686638628321665,259.2794663939425
3930.0667,4.6828588963041735,264.1074614858844
3930.9731,4.677883690141541,258.5258157494395
3931.8774,4.671283165786124,256.04143298063195
3932.782,4.662852914848982,270.50146035734963
3933.6887,4.652878698627827,265.75153938521163
3934.5938,4.642073224343619,274.83295488878787
3935.501,4.63096475126029,271.618520447305
3936.4062,4.619683916898802,268.03426787434853
3937.3142,4.607737297684462,273.5001833594356
3938.22,4.594586331040434,272.3002257185147
3939.128,4.579828987379429,284.0581183773652
