wavl,flux,ivar
3566.9744,8.395315316304806,15.912902925733068
3567.795,8.38971596717981,11.164092392966637
3568.6177,8.379074520220572,12.867779426553655
3569.4385,8.361546498013764,13.112075539632198
3570.2617,8.33894198749227,13.73641160870835
3571.083,8.316009435418103,12.596252872007316
3571.9065,8.2966533270997,15.060344885954153
3572.7283,8.281517862087162,14.697276776064871
3573.55,8.268377837846877,12.84993150632998
3574.374,8.255929145509846,10.943598788123152
3575.1963,8.246462343859292,11.236609965296378
3576.0208,8.24447643057911,10.356675601658436
3576.8435,8.253105459361926,12.680167289838241
3577.6682,8.27136816746757,10.062680630513034
3578.4915,8.29433860405317,12.321423493023026
3579.3145,8.316022318212353,13.05055447908266
3580.14,8.332053541924859,9.904881080715906
3580.9636,8.340636698282704,10.763143450518172
3581.7893,8.342230998031638,13.612731905444305
3582.6133,8.338114926019466,14.719614751940886
3583.4395,8.329108301860918,13.85526135742192
3584.264,8.31457440181057,12.623284518348711
3585.0884,8.292485180955241,14.998366219631311
3585.915,8.261791374467608,11.577269662491318
3586.74,8.225986983078158,11.55532873812807
3587.5671,8.193070448053376,12.456152884042197
3588.3923,8.171966891408667,13.99433626329588
3589.22,8.166145579137872,18.26177494282026
3590.0457,8.171616964901574,12.95835841533336
3590.8716,8.179362442005637,12.116411733042202
3591.6995,8.18022981882189,13.777334600447302
3592.526,8.168797964822943,13.114633244052255
3593.3542,8.145569662695571,12.598090432283847
3594.181,8.117491565974001,15.330111800806655
3595.0098,8.094806067887584,11.876414831040615
3595.8367,8.08566853077499,12.887650158943053
3596.6638,8.090618546078458,11.908879960804118
3597.4934,8.102945920522648,10.264533510837547
3598.3208,8.114008711014762,17.886288387812773
3599.1506,8.119735022351312,11.780090675588346
3599.9788,8.121846361001353,15.02166510456967
3600.8088,8.123751985130701,14.440104350324685
3601.6372,8.125176509758765,11.705071074000333
3602.4678,8.121138320377147,15.789164000983718
3603.2964,8.105956022219006,13.325008381944428
3604.1252,8.078161951643496,11.982476729404407
3604.9565,8.04183815203135,15.020513561548125
3605.786,8.004238136726718,17.223449562381
3606.6172,7.971367505837469,13.468944885392592
3607.447,7.947198297785646,13.895013781304378
3608.2788,7.93361040191014,13.039266898573063
3609.109,7.93044147679927,11.81320866661451
3609.9392,7.933830789937588,17.788861531544867
3610.7717,7.936825791044497,12.357899642050441
3611.6023,7.93328123569924,18.682386954803608
3612.435,7.922306882173978,15.39197431780581
3613.266,7.908593213574104,18.798778762061737
3614.0994,7.8978692058294095,16.24914232201608
3614.9307,7.892565760372605,15.580995058504135
3615.7625,7.891065925683392,13.357207731019104
3616.5962,7.89044732662564,12.942649237218818
3617.4282,7.888358105950752,14.768782458893133
3618.2625,7.8824753588325365,13.142772276009522
3619.0947,7.869700727490177,11.741161629553815
3619.9292,7.847273636531941,13.26647569960611
3620.762,7.8161482448423385,14.579189022412944
3621.595,7.782851203823425,13.203405117878443
3622.4302,7.758017538848802,12.874494240142287
3623.2634,7.750790846255194,17.60620549831956
3624.0989,7.762156861027411,15.397076826530139
3624.9326,7.7835111991900625,15.344132367901292
3625.7686,7.801702556825735,14.438059728108135
3626.6028,7.806485425983777,10.566688488198972
3627.437,7.795873636958144,12.790160536177773
3628.2734,7.775839888747709,13.591153847372569
3629.1082,7.756671458021388,17.095218005026524
3629.945,7.7474740211842095,15.852235535695042
3630.78,7.752259523710595,15.736620280916554
3631.6174,7.768184245065953,13.765617189610156
3632.453,7.786858228492553,13.084398903433673
3633.2883,7.798254102732205,21.821559099689004
3634.1262,7.794945132385803,11.549304186400004
3634.9622,7.7755917619555515,12.9996265783891
3635.8005,7.745716926270993,13.839739563986505
3636.637,7.715656488629916,11.505657736755593
3637.4756,7.694957729937076,14.64728406038506
3638.3123,7.68749800080968,12.673055297352594
3639.1492,7.68910343093212,13.107772046389183
3639.9885,7.691300777645369,21.97975325458121
3640.826,7.687664188713414,13.158840646593774
3641.6653,7.677491488064624,15.872972588221213
3642.5032,7.664032546780451,16.34932662139939
3643.343,7.650477969706301,14.127482260625891
3644.1812,7.638748076318956,16.031082400177578
3645.0195,7.630363412605024,14.462184381243649
3645.86,7.6270672977365885,16.668043878456732
3646.699,7.629600343757543,12.16739240722252
3647.5398,7.636500867625341,16.078559052500808
3648.379,7.644616707257059,15.184686530755108
3649.2202,7.651124925265451,20.502602836135708
3650.0596,7.6552345274692595,16.452045395641257
3650.8994,7.658732219333065,13.112700194826921
3651.7412,7.664579529640958,13.458856688647348
3652.5813,7.674695371949719,11.668321009695976
3653.4236,7.688868633625891,20.18826897326558
3654.2642,7.705243873432246,12.557313547227889
3655.1067,7.721888029227966,13.294086252535056
3655.9475,7.736775194846623,13.017827583794856
3656.7886,7.747156637992298,12.54590572669534
3657.6318,7.748693343624332,11.237678742849234
3658.4734,7.7360843087707565,14.086431517781264
3659.317,7.705291732047832,12.782191032567402
3660.1587,7.6572823969339225,15.139327747905929
3661.003,7.600165527857207,16.535761575330106
3661.845,7.548955300752029,17.41893419957381
3662.6875,7.518494030455267,19.886010695954127
3663.532,7.5162538876567195,15.333316392247944
3664.3748,7.537525760602576,15.647275972277747
3665.2197,7.567717137820813,16.62530935134091
3666.063,7.589763367175334,12.636153572360643
3666.9084,7.592901940383171,14.41393299306814
3667.752,7.576648046416869,13.21834721182629
3668.5977,7.549258192682975,14.511256543531854
3669.4417,7.522398820454232,11.497072591874572
3670.286,7.504657309567083,17.37836214535447
3671.132,7.497925848680711,14.0031341958171
3671.9768,7.497299383722173,12.906266692228607
3672.8235,7.49473053249093,12.191882660005186
3673.6685,7.484443416063329,14.99262816032006
3674.5156,7.4662484047830695,11.529087744077339
3675.3608,7.445040114593826,13.778594826794475
3676.2063,7.426533527476324,14.999792191157225
3677.0542,7.413307364836607,15.50837300472639
3677.9,7.403748876329668,14.26265291255746
3678.748,7.394159993763239,17.162025446110206
3679.5945,7.382224246740643,15.772734594391009
3680.4429,7.368010247401305,14.55388614997139
3681.2896,7.353394106120061,15.439487223513241
3682.1365,7.341014412979474,16.74835417318606
3682.9856,7.3340278664719,17.001440222293173
3683.8328,7.335027299561103,14.931080957754723
3684.6824,7.343951027035609,15.478446556796358
3685.53,7.356849935875068,17.423347939441395
3686.38,7.367180517595195,17.346123098614406
3687.2278,7.368925463814,15.738989673281605
3688.0762,7.360316958045259,16.891558026675632
3688.9265,7.345033409266745,14.135673041880228
3689.7751,7.330165026062621,16.52776917379265
3690.626,7.3213571051730675,17.559411339482867
3691.475,7.31927919737839,12.968559629246236
3692.3264,7.319520028426888,17.143379779179412
3693.1758,7.316457498795856,15.898990423530016
3694.0254,7.307346074059853,20.380063412738664
3694.8772,7.292931008640519,18.33000000008964
3695.7273,7.2748685142863945,16.57436507102212
3696.5793,7.253461154773268,16.017634469642093
3697.43,7.229633284410993,18.32697697631999
3698.2825,7.207301839085778,14.504973393046223
3699.1333,7.192315838189171,20.601055923582035
3699.9841,7.186557191152552,17.186040147057184
3700.8374,7.184837182318433,15.677168143814741
3701.6887,7.178694951462436,15.584809664009166
3702.5425,7.164047280380277,18.675941867960535
3703.3943,7.144902389309001,17.642628434840294
3704.2483,7.129104789633803,15.512730550179022
3705.1003,7.121682040670243,17.57895047418858
3705.9526,7.12134289104255,14.89597461968145
3706.8074,7.1228763940033595,15.662514037648874
3707.66,7.121353752463864,17.43542177522291
3708.515,7.1146081877832135,18.0697962633311
3709.3682,7.102893604812444,16.44204543806651
3710.2234,7.086984780027219,16.18790199235491
3711.0771,7.067297147913881,18.21877193235499
3711.9307,7.044408155017431,17.11669926302234
3712.7866,7.020468404179626,15.469284854396001
3713.6409,6.999080529896257,19.663647932066752
3714.4973,6.982042724125017,17.24967370313352
3715.3518,6.967393453417848,23.9148331615038
3716.2085,6.95086745091441,16.828273553787263
3717.0635,6.930950601096468,13.76939004028045
3717.9185,6.910721547901858,19.894426160974874
3718.776,6.8945805438395755,22.08828864969909
3719.6313,6.883535953812758,17.803767978352507
3720.489,6.874345796063692,16.9226223775069
3721.345,6.864031434904191,22.629432127374265
3722.2031,6.853972983800881,15.872573102462436
3723.0593,6.849805554029822,20.804051022177166
3723.9158,6.856302573249765,14.66843530139123
3724.7747,6.87217299920805,17.366572980372688
3725.6316,6.88893858059256,20.817615511900176
3726.4905,6.896109295571293,14.692057395754226
3727.348,6.8879638593979156,17.521728045873243
3728.2073,6.867214121013741,18.61170219852691
3729.065,6.842773495998856,18.807811451017113
3729.9229,6.823429330250488,19.73615417465387
3730.783,6.812931567274488,23.94337150304681
3731.6414,6.8094652178420345,18.709104256324395
3732.5017,6.80902616956255,16.713134578525498
3733.3604,6.809110377010703,20.295008517584794
3734.2214,6.80889091497832,19.236854663509252
3735.0803,6.8069252061419325,17.806252091841607
3735.9417,6.800031398477985,17.584068855119103
3736.8013,6.7852726991830945,20.543965928683463
3737.661,6.762727067267768,18.069106477805487
3738.5227,6.735931944595632,19.297061600513608
3739.3828,6.709464322829665,22.258538643789745
3740.245,6.685321928579316,21.874248262469
3741.1055,6.663053518183485,17.65307680541695
3741.9683,6.64215162957819,23.59787182810545
3742.829,6.625321815838713,21.149581757244025
3743.69,6.617713839273981,27.33524634084388
3744.5532,6.623751346716581,19.733250658248473
3745.4148,6.6433338543071825,16.911927398226428
3746.2786,6.6708450663741825,20.81301817769173
3747.1404,6.697384687454514,17.69492445043444
3748.0044,6.716010406952384,16.24665429185177
3748.8667,6.724870653020691,19.455427928715263
3749.729,6.726835865511859,20.75940617268035
3750.5938,6.725211970651404,18.844870291185497
3751.4565,6.720687785993372,21.049125333041463
3752.3215,6.712230784899694,18.91116752633964
3753.1848,6.700421863580719,14.266285101798141
3754.0503,6.688397743301542,19.12691957915888
3754.9138,6.679351898808822,20.27463385870166
3755.7776,6.67297527769727,19.164887920099748
3756.6438,6.665269840963937,17.32470778777284
3757.508,6.6515560610434,17.907586966443912
3758.3745,6.629710818083292,22.454316933209423
3759.239,6.601867800350087,19.387416322003276
3760.106,6.572821489087598,17.63692648249609
3760.971,6.547435150197642,23.24958414222212
3761.8362,6.527020133238706,18.602715800611517
3762.7036,6.509093657695659,22.5848456170847
3763.5693,6.490291119619036,22.712851693067655
3764.437,6.4695156188511955,17.918801714710714
3765.3032,6.4487516053515535,23.52912713442027
3766.1714,6.430159096548443,21.976121100105395
3767.0378,6.413954167607761,19.85990892269509
3767.9043,6.398524243301126,20.12874195334927
3768.7732,6.3830869644136525,23.97131644020284
3769.6401,6.369703670399438,19.752063166872038
3770.5095,6.362155775810515,21.979161680203816
3771.377,6.362948286710135,22.090501570904806
3772.2466,6.37028297602821,19.874576899368943
3773.1145,6.378393130104992,18.88208137176542
3773.9824,6.381360061042989,23.738600015268553
3774.8528,6.377149228525021,17.054766929129208
3775.721,6.368796510693985,21.247362377158375
3776.5918,6.361927796491186,24.207807718566805
3777.4604,6.361305460696305,21.26715120577529
3778.3315,6.368579714028802,25.105894523838725
3779.201,6.3823894117849465,22.338404689935725
3780.0703,6.399643798702624,18.21426954878496
3780.942,6.416221953120002,22.671182629732765
3781.8118,6.426788894907341,19.627362378804442
3782.6838,6.425981961275795,19.61328473943272
3783.554,6.411268542245599,22.122853664889988
3784.4265,6.3855328539561595,23.23143709965862
3785.297,6.3559216633746125,24.18962530176151
3786.168,6.328237372943042,21.915243794148267
3787.041,6.303257620770213,23.511587001009048
3787.912,6.278342754998633,20.588382678890117
3788.7856,6.251896489328709,19.886885113763363
3789.6572,6.226823060805342,23.350269454050764
3790.531,6.208175383402096,24.397381068780764
3791.403,6.198989912839003,24.613634691058667
3792.2754,6.196988621796617,25.005155976863822
3793.15,6.195922203466133,25.184187478611364
3794.0225,6.189612364696211,20.900596841070083
3794.8972,6.175516364513992,21.696339770447537
3795.7703,6.155657944787433,24.172205794294083
3796.6455,6.134723949448288,20.262408240580296
3797.519,6.11802732553489,21.955885913986535
3798.3926,6.109233274213326,26.61504976115036
3799.2686,6.109078535255059,21.344346203506223
3800.1426,6.114610029456282,22.076359840920396
3801.0188,6.120211864212666,25.44718787822966
3801.8933,6.120643629202066,22.814536348530922
3802.77,6.114627982189966,25.014715585475287
3803.6448,6.105996492523989,19.80967001442865
3804.522,6.100923356945828,29.44024284244056
3805.3972,6.103569188379544,19.247248946343735
3806.2727,6.113464849752054,22.427757088078575
3807.1504,6.126614842528314,27.491429728803485
3808.0261,6.138150709125163,22.336670090131435
3808.9043,6.144769925036503,20.298905621004977
3809.7805,6.145342728568287,24.024623964323172
3810.659,6.1406871513683186,22.929797495269067
3811.5356,6.132553189138369,22.629657736712613
3812.4126,6.12267433579126,23.833715648092962
3813.2917,6.112659499672765,26.73590948755822
3814.169,6.104452833557469,25.402848389387373
3815.0483,6.099895504572241,18.77899043406226
3815.926,6.099467840761767,23.448775662703927
3816.806,6.10085906219337,21.45520288580131
3817.684,6.099353886177992,20.382855756403973
3818.5623,6.09022183617253,22.59734217014313
3819.4429,6.071500703202653,26.150150294765048
3820.3215,6.045415756875791,23.059794675169265
3821.2024,6.016572675618676,25.375798376801598
3822.0815,5.989400788521719,29.35898700966226
3822.963,5.965523265772896,24.665900105451428
3823.8423,5.9443529258079115,23.731898338998295
3824.722,5.9243604312239,22.50974248592799
3825.604,5.9046435462508375,24.3932576148094
3826.4841,5.8851479022493045,25.589340226156445
3827.3665,5.865545500242659,26.918460098764225
3828.2468,5.845005561111481,23.8869143591375
3829.1296,5.82207336224306,22.142755133012436
3830.0105,5.796066952808117,26.55994475277651
3830.8916,5.767496072454639,26.73056037781878
3831.7751,5.738037458580825,23.714666490104953
3832.6565,5.709839896773558,22.780648374664796
3833.5403,5.684382911643643,25.897886149603384
3834.4224,5.663406088631292,24.29921441788433
3835.3064,5.649004208767506,25.359210975021657
3836.1887,5.643487444831058,30.951116016473993
3837.0713,5.647604413236016,24.5189645140925
3837.956,5.6596040777479475,28.536354289801263
3838.839,5.6757455869224165,28.257378958624244
3839.7244,5.692491745125193,24.697793244394905
3840.6077,5.707597642452986,30.74261141840283
3841.4932,5.719935497735567,25.460672272433698
3842.377,5.728113684028387,28.439954593525464
3843.261,5.730922190861485,29.426497053210547
3844.1472,5.729008713707591,32.18118348199245
3845.0315,5.726365937948601,27.198950103333672
3845.9182,5.729361753501885,29.124383061567205
3846.803,5.743471028520002,34.33449105670831
3847.69,5.770065671164916,26.963174432875938
3848.5752,5.805363726661958,26.759498155343692
3849.4604,5.843275205941781,30.119178100628396
3850.3481,5.879098263251517,23.960924811022576
3851.234,5.91106145807925,23.349845436468048
3852.122,5.939464922883822,26.445157648800727
3853.0083,5.963294605483848,25.66927055157965
3853.8967,5.980245438089281,18.883704797982467
3854.7832,5.98875131967119,23.38045278706557
3855.6702,5.990663337611464,23.259368447206153
3856.559,5.990168646158735,25.727753857090434
3857.4463,5.9902596487383555,23.946532447118454
3858.336,5.990075449015534,23.14592838423926
3859.2234,5.98587771845724,27.47205856264807
3860.1135,5.974574028018796,18.519824803969918
3861.0015,5.95665103265229,27.913842116395887
3861.8896,5.935728820439699,20.223472240714344
3862.7803,5.915890886224361,24.746470707995066
3863.6687,5.899115577910474,25.291729426775554
3864.5598,5.8841727914633495,23.360102045785002
3865.4487,5.868486682375011,22.599861437507077
3866.34,5.850133322224346,23.915716110866867
3867.2297,5.829599848169222,19.883001559640118
3868.1213,5.809036281109125,27.810307128178316
3869.0112,5.790814256997316,27.51776585699012
3869.9014,5.775495881527066,27.603304083617424
3870.7937,5.76154056051675,25.859350245128073
3871.684,5.746359709974822,25.93357234654814
3872.577,5.727327875955173,29.597464608514745
3873.4678,5.7024918982264055,27.939157706875157
3874.361,5.66997402721595,28.05610229053001
3875.2524,5.628847268501116,24.91439188866869
3876.1438,5.5796701671926945,23.91896248891372
3877.0376,5.525057801792944,31.711093941767256
3877.9297,5.46920135195494,31.357957891389127
3878.8237,5.415225888755045,29.685554781222525
3879.716,5.36465030783218,29.253284223114385
3880.6108,5.315270483299468,28.62989995220132
3881.5037,5.259975847133528,25.703180363934376
3882.3965,5.182297925669256,30.018635258335333
3883.2917,5.0537557806459015,31.83472195855656
3884.185,4.841066909234936,32.20100707670336
3885.0808,4.526154069674821,32.82041987906654
3885.9746,4.143808124568754,32.84639582919438
3886.8706,3.7894416524551024,37.15289918770216
3887.765,3.587522722684051,43.95320716491209
3888.6592,3.6104887316381853,36.752852086295604
3889.556,3.831981626856466,44.75861873001902
3890.4507,4.1453328493398525,36.57670444747551
3891.348,4.440495854879764,42.083564965791695
3892.243,4.657169024190986,39.61400371790966
3893.1406,4.796166139892626,35.41210795450357
3894.0361,4.885681867560028,40.507674900825776
3894.932,4.954946738565959,39.250565206955955
3895.83,5.02001574682461,39.36304049889566
3896.7263,5.084432724889489,31.201450677302542
3897.625,5.146022115793257,33.061233270970334
3898.5215,5.200768250275022,27.912582849970754
3899.4207,5.246830167092043,30.26269589316407
3900.3176,5.284057678454826,32.51138846724645
3901.2148,5.314508753782729,23.188339421778302
3902.1145,5.341464043463948,32.09823620766711
3903.0122,5.368712941185619,26.942810717922168
3903.912,5.3998800299523,36.594033665040406
3904.8103,5.436515219330064,28.14161445465243
3905.7107,5.478181113339323,36.769157349153474
3906.6094,5.5227308119546,32.261240542848014
3907.508,5.568115102816812,26.177262089830105
3908.409,5.61223240407152,24.992477794912883
3909.308,5.651728364571455,31.321547272575703
3910.2097,5.682724907557633,20.262824768025293
3911.1091,5.702293271040632,26.86423692097187
3912.011,5.71176585605084,30.632163798546895
3912.9111,5.716853511027353,26.673283510944653
3913.8113,5.725210357891261,30.09744316574412
3914.7136,5.74234462772093,28.73445806679085
3915.6143,5.768880027776919,28.20670875741625
3916.517,5.801285176080353,24.28622363927657
3917.4182,5.834214215945663,22.909975639441832
3918.3215,5.863884305847276,23.812493489111233
3919.223,5.888632903633663,23.362880361742004
3920.1245,5.90855501691522,23.297475215770763
3921.0286,5.923814449984589,27.124023537731794
3921.9307,5.934075930051769,29.82078626595858
3922.835,5.939507602851002,25.5054911681506
3923.7373,5.9415672636290315,25.005838320128245
3924.642,5.942913784549984,24.03148047003768
3925.5452,5.94583700999338,24.52182108912407
3926.448,5.950915555748657,21.674236127569873
3927.3535,5.957188414404299,20.27678639736205
3928.257,5.963437793707514,24.671171181109745
3929.1628,5.969258398004248,22.636245697759495
3930.0667,5.974541160841209,20.182929809620646
3930.9731,5.9784310310578865,26.087434279924633
3931.8774,5.978603267429135,22.967576210732595
3932.782,5.971927775415471,26.74512091566162
3933.6887,5.955941960761049,21.14860771218899
3934.5938,5.930628634653528,26.503246433038914
3935.501,5.8985013840360585,22.121322270804225
3936.4062,5.863688465181884,24.010308274433886
3937.3142,5.829429481946528,24.895498059828608
3938.22,5.797788543470745,26.792778095273317
