wavl,flux,ivar
3566.9744,8.334529400437976,16.78626683180384
3567.795,8.36895586737535,19.17833991882894
3568.6177,8.391223022761306,17.72440327383898
3569.4385,8.393235498481417,20.241673375938415
3570.2617,8.372770932937728,17.496841762159068
3571.083,8.33519946208653,15.465514833436249
3571.9065,8.290530002064509,18.673198715881806
3572.7283,8.248863671991252,16.722264505476286
3573.55,8.214720809980035,17.851375306033294
3574.374,8.185590796342225,16.46596527358738
3575.1963,8.155284712741013,17.56188841656808
3576.0208,8.119804909241708,23.33876924249497
3576.8435,8.08238922418182,16.353251106376057
3577.6682,8.051136408381705,19.06164540250835
3578.4915,8.033038448524662,17.741202104135706
3579.3145,8.028114507493855,20.91163013908207
3580.14,8.029715966175155,20.019052938824284
3580.9636,8.028330628810973,21.970293426671166
3581.7893,8.015435715867525,16.71863579295977
3582.6133,7.986509311729672,20.767308018542288
3583.4395,7.943900377912466,22.209548665271466
3584.264,7.8993989652178245,20.099037163132046
3585.0884,7.8705353756061465,23.078780369463633
3585.915,7.872166807843158,24.634474192124507
3586.74,7.907214357422535,26.330316410972554
3587.5671,7.964078824001282,20.92216382358434
3588.3923,8.021543357427213,22.489541851033007
3589.22,8.059342014964242,15.321403998826721
3590.0457,8.065462580211618,20.965292647730156
3590.8716,8.040218886159652,17.455018053652058
3591.6995,7.993540764716045,19.272693495554737
3592.526,7.940057699662766,18.944173111852763
3593.3542,7.892338650622393,19.18698957017894
3594.181,7.857352923319157,19.689127788231094
3595.0098,7.8342553218548945,23.82104075977728
3595.8367,7.816697323788588,17.996994654569537
3596.6638,7.7964280250428795,22.05913414617336
3597.4934,7.7679091963195255,26.291193128649848
3598.3208,7.730892336504174,21.753559201663446
3599.1506,7.689162165933181,18.75836243052192
3599.9788,7.649526349407922,20.647807172713616
3600.8088,7.619889457617546,27.877961970220195
3601.6372,7.607909205609191,20.601536616869858
3602.4678,7.615870375012021,26.037332572593705
3603.2964,7.636653980734165,24.75722624278011
3604.1252,7.656537206613171,19.145067543377287
3604.9565,7.66539683731844,21.681869312131965
3605.786,7.665386691501626,20.970338435839917
3606.6172,7.669054296687695,24.737214354275995
3607.447,7.688005014611783,22.44115639689337
3608.2788,7.723318984016945,21.073444569371297
3609.109,7.764834983810934,18.07450469650392
3609.9392,7.799154678217464,18.889399994395767
3610.7717,7.8174117004430315,18.307474834221708
3611.6023,7.817958157474539,22.069546758784565
3612.435,7.803850053213874,20.15703212599723
3613.266,7.778948910610804,21.83440729967391
3614.0994,7.746583842215476,22.89918598137637
3614.9307,7.710962405358822,20.638193440376387
3615.7625,7.6765965836550665,22.950923663711436
3616.5962,7.646683996708594,22.889305059356413
3617.4282,7.62167289205782,21.31092052099793
3618.2625,7.599635675481834,20.483747169049785
3619.0947,7.579111470254224,23.250213364643248
3619.9292,7.56023999323604,22.60706649333908
3620.762,7.5447574172467,21.38113839912722
3621.595,7.533907740596172,28.440037935698527
3622.4302,7.526880766568418,20.281553075033518
3623.2634,7.520465941063909,23.76568838514874
3624.0989,7.510792787357407,18.040719280363884
3624.9326,7.4967912456495815,22.009915165276475
3625.7686,7.481858736904132,23.206646878654293
3626.6028,7.471861244469175,23.88649286320271
3627.437,7.469551015122272,25.772240645858716
3628.2734,7.471028423277841,23.3567851268859
3629.1082,7.46773856852472,24.165399911170034
3629.945,7.4531777679652045,26.025944747505235
3630.78,7.428655090135673,22.666951938821008
3631.6174,7.402661620106312,22.812783329197245
3632.453,7.3855161419997675,26.76021603518673
3633.2883,7.382628072632196,19.163191520658522
3634.1262,7.392612645931537,24.255065370144195
3634.9622,7.409507667388603,21.167491248849572
3635.8005,7.427199808160808,23.163460726252822
3636.637,7.441756684634401,24.118548259901402
3637.4756,7.451502146467201,23.671284140784717
3638.3123,7.454936717920861,23.269693188734763
3639.1492,7.449966726747524,21.430069833220042
3639.9885,7.434880886218744,25.810338511571295
3640.826,7.4106809728158165,28.83339726254229
3641.6653,7.38144648024591,24.686923100414376
3642.5032,7.352858476312215,25.523260582134984
3643.343,7.328861292331013,27.425570216707783
3644.1812,7.310643467256145,23.11585164552215
3645.0195,7.297246816655591,21.22791635986766
3645.86,7.2877746389052955,21.95703549020274
3646.699,7.282028812467877,21.442612828820252
3647.5398,7.278936327170165,23.905485573085517
3648.379,7.27525060392536,24.236302233751875
3649.2202,7.266451625185734,22.716183027420943
3650.0596,7.249743734427653,23.823802249603936
3650.8994,7.22575130346459,20.351983729157297
3651.7412,7.197639952932733,24.186695830377975
3652.5813,7.168968233439224,24.574403132551573
3653.4236,7.141829626780844,25.53850714464998
3654.2642,7.117723662148562,26.617234467437324
3655.1067,7.098126539770538,27.321290415025256
3655.9475,7.085237098596921,27.52808714778547
3656.7886,7.08095722981728,25.481837551364077
3657.6318,7.086066538340168,24.59342512804725
3658.4734,7.09944710657154,25.74875535103367
3659.317,7.11815608246468,22.68906789939016
3660.1587,7.138028577576165,23.78820744626303
3661.003,7.155895750320356,25.317949091605353
3661.845,7.171312966227691,24.24255424192042
3662.6875,7.186838003663803,26.4149903459886
3663.532,7.204657037893975,22.606837209567463
3664.3748,7.222676017897716,19.8318429672677
3665.2197,7.234246493153461,18.961016839815564
3666.063,7.231853046445668,24.57533062806497
3666.9084,7.212806547112666,21.075054109045766
3667.752,7.18221856322865,28.279004387028966
3668.5977,7.150673129889162,24.67241820749607
3669.4417,7.1292018025019335,25.647210666116898
3670.286,7.123472016785152,24.11956558179668
3671.132,7.132159209913548,22.977788973450792
3671.9768,7.1484943717804015,23.95560611804561
3672.8235,7.1640204479282525,26.272688084322862
3673.6685,7.171914102186525,22.978555834348498
3674.5156,7.169428641594411,24.92400807613127
3675.3608,7.158069011921092,26.547657393634225
3676.2063,7.141722837832523,25.79234683373364
3677.0542,7.123851943225158,24.728784317972348
3677.9,7.106135870255488,24.180795771846636
3678.748,7.088721820811836,30.686918105325187
3679.5945,7.072094503743323,28.627117867401616
3680.4429,7.057302914316354,31.527873596657315
3681.2896,7.045615163524581,23.744297327761615
3682.1365,7.037667412880419,25.409285105266513
3682.9856,7.033800240643249,25.637255570008637
3683.8328,7.034453084999773,21.1637419374078
3684.6824,7.039757514864821,23.389588738764505
3685.53,7.048600327634503,32.33035760028345
3686.38,7.0585036362444935,21.227722188634473
3687.2278,7.0665258559153425,27.200189554621147
3688.0762,7.0708474187581585,24.568320306410023
3688.9265,7.071338456400771,24.068535562016482
3689.7751,7.069459382092639,22.976532211449836
3690.626,7.067809015764385,21.52824104276895
3691.475,7.069291758657362,28.678023816907455
3692.3264,7.0754791943563955,23.732071026012857
3693.1758,7.084860706510926,22.851524150253297
3694.0254,7.092925043003389,30.596169355157258
3694.8772,7.094466175423202,28.21174943779944
3695.7273,7.086958105442017,22.61554854742576
3696.5793,7.072581002594533,25.8265906110719
3697.43,7.057377667723856,23.327272775361745
3698.2825,7.047288995368237,30.444992137743032
3699.1333,7.044101712530799,22.656518739589462
3699.9841,7.043896178427135,21.967118168363758
3700.8374,7.039807438247913,26.774390495938352
3701.6887,7.026681594138591,24.99598958394634
3702.5425,7.0040999307344425,23.857432219891933
3703.3943,6.976367911151274,23.68434279288098
3704.2483,6.949085455456808,26.49759391181092
3705.1003,6.926403242399905,29.313943740660747
3705.9526,6.90933943494294,23.397685777164277
3706.8074,6.896906513026117,25.822736452316605
3707.66,6.887436633469885,25.11483386708237
3708.515,6.878856533157366,25.936824995656497
3709.3682,6.868984406755387,20.369579437851268
3710.2234,6.855696953682915,27.07579185373619
3711.0771,6.837584085893352,28.676111731335464
3711.9307,6.8139031566615476,27.13049865591718
3712.7866,6.784571199293977,32.60430028401947
3713.6409,6.750911870211784,24.04210734913845
3714.4973,6.715662965162913,24.52579713272925
3715.3518,6.683268334997586,28.29272944340838
3716.2085,6.657879512582585,28.56867188217917
3717.0635,6.642473875466467,29.707980903798727
3717.9185,6.637783397204427,27.085862767422572
3718.776,6.642493485655781,27.722742356324776
3719.6313,6.652799921482723,30.01682166002584
3720.489,6.662311804337995,31.916230305571197
3721.345,6.663425411307545,25.907001042722015
3722.2031,6.651095609789309,27.064259552911082
3723.0593,6.626382551178335,30.693293577672556
3723.9158,6.596296548845334,26.90601218812116
3724.7747,6.569693667746707,35.22263984932707
3725.6316,6.5522805463585145,25.33143486511205
3726.4905,6.543628623171264,28.346882924530252
3727.348,6.539008334105038,31.258742033586266
3728.2073,6.53304406932831,29.551332729126944
3729.065,6.523179795403095,29.38689854656485
3729.9229,6.510282741714875,27.40704345713871
3730.783,6.496633255685681,30.16679630428467
3731.6414,6.483410490905315,28.040840348302254
3732.5017,6.4697327164073215,31.724920362318844
3733.3604,6.454442638195169,30.097743879213798
3734.2214,6.4378022742488765,28.42371498629308
3735.0803,6.422276885805636,36.46468738394651
3735.9417,6.4110627958565845,29.768998139809877
3736.8013,6.406576367490718,38.51286996864603
3737.661,6.408942271605275,32.405596916560576
3738.5227,6.416232001053462,30.31752120808456
3739.3828,6.42569552543675,27.388275724463224
3740.245,6.435136072574821,29.135970068612362
3741.1055,6.44278905306838,31.197846785312684
3741.9683,6.446946833863212,35.283863659996804
3742.829,6.446124968146065,30.092539841119272
3743.69,6.440127642195254,27.29769612889873
3744.5532,6.430067307981283,29.621281347881506
3745.4148,6.417324086924066,34.30359400165065
3746.2786,6.402437893735746,28.931548037943458
3747.1404,6.385961422550691,30.914067055427573
3748.0044,6.369497985500549,33.002741345842345
3748.8667,6.355988147486725,33.45276695067111
3749.729,6.347576520141605,31.79120830676624
3750.5938,6.343844541558559,30.316322929027365
3751.4565,6.342034120813208,31.769037180478723
3752.3215,6.33935389753666,28.099307805377723
3753.1848,6.335179461198621,29.65051214764588
3754.0503,6.330670865624439,33.960923818172795
3754.9138,6.3265487806611675,32.51376980537224
3755.7776,6.321517137244678,28.96156479662046
3756.6438,6.3133315081534676,27.433213581432184
3757.508,6.301146441649289,32.81684648799717
3758.3745,6.286123985644093,30.693831642748712
3759.239,6.270265850706665,33.22892320403358
3760.106,6.254640981295363,32.838588362131404
3760.971,6.239863718509324,39.92210791190774
3761.8362,6.226858441310731,36.29652441056886
3762.7036,6.216978020304968,31.259656018756694
3763.5693,6.210743526590397,29.41974772342923
3764.437,6.206815431619181,31.797973233042512
3765.3032,6.202863055801654,31.45910168680605
3766.1714,6.19710795482278,31.10674183142952
3767.0378,6.189280159738991,36.02854197197338
3767.9043,6.180128450444356,31.006036265010703
3768.7732,6.170638888802443,33.66618373854148
3769.6401,6.161926074024398,32.618775513641204
3770.5095,6.155368861835629,42.01208019682935
3771.377,6.152765977936728,32.43472606223308
3772.2466,6.155510618541942,33.86453123562787
3773.1145,6.163644030662478,35.31521120612334
3773.9824,6.1753218645220675,29.157311692613742
3774.8528,6.187114241924501,34.287983551294126
3775.721,6.194970937533687,31.220352884350426
3776.5918,6.19604953402759,31.92143061645106
3777.4604,6.190019888579254,34.39236025628089
3778.3315,6.179401782455314,30.839043616102014
3779.201,6.168549994966081,36.115638634433815
3780.0703,6.161995446667626,35.832145706696195
3780.942,6.164173888783777,37.10935988454772
3781.8118,6.180398328402198,36.65163658517902
3782.6838,6.217084709493022,31.172584518251472
3783.554,6.277214932828075,34.452571784938364
3784.4265,6.353168652053128,35.01208870908191
3785.297,6.421499645891592,33.23064021895427
3786.168,6.452567754251409,27.845777322939853
3787.041,6.427953237685617,31.244550160460875
3787.912,6.353938820820669,29.07932705884949
3788.7856,6.2558961984051535,32.334267600889305
3789.6572,6.161821338358413,34.98529895699113
3790.531,6.086598437266498,35.21913332685372
3791.403,6.032186535870607,32.83176510006045
3792.2754,5.993100380049898,31.053933056219385
3793.15,5.963480453185136,33.652101983516246
3794.0225,5.93962348836842,36.87648434534734
3794.8972,5.9192812872412555,32.49389696592595
3795.7703,5.901179330135531,38.70503041544671
3796.6455,5.884209840035103,33.24650744033406
3797.519,5.868336374029521,36.351285513374634
3798.3926,5.8552654215721,39.72368985262818
3799.2686,5.848445705376983,38.9181245778796
3800.1426,5.851270633436407,38.36408440094532
3801.0188,5.864808333515855,36.4289321703386
3801.8933,5.887032848567042,43.12493082373231
3802.77,5.913970683736569,33.80879667134475
3803.6448,5.940537929432115,42.89751707422529
3804.522,5.961818321183952,37.582286594562
3805.3972,5.973801730907312,29.469213543114982
3806.2727,5.9755679547049025,38.277680207320536
3807.1504,5.969724606555411,36.69623174390068
3808.0261,5.960732808268419,35.79805499453484
3808.9043,5.951869070707054,34.91697885816644
3809.7805,5.94422653149223,32.7713270407643
3810.659,5.937949453933131,35.88042445282312
3811.5356,5.934168190597041,37.31702720921203
3812.4126,5.934861565138188,37.53106486100638
3813.2917,5.941223408789148,35.29982696007504
3814.169,5.952043895734279,37.29648244856364
3815.0483,5.963966368456925,31.251846263925536
3815.926,5.972987599678878,34.856028256113774
3816.806,5.976495398832315,38.028916531136645
3817.684,5.973855560190031,36.53787122632667
3818.5623,5.965698342473398,37.982770530164366
3819.4429,5.952373835243067,34.18097379372388
3820.3215,5.933332064163137,33.372029064498925
3821.2024,5.907349005967392,40.4229168541845
3822.0815,5.87415527636731,33.948408371918994
3822.963,5.835021459127678,33.23864803722486
3823.8423,5.793347529175256,36.5327061469328
3824.722,5.752754338631855,36.06508223553886
3825.604,5.715503384101403,38.641699280593755
3826.4841,5.681742287279796,40.32865240773356
3827.3665,5.64952518005519,38.87079616150943
3828.2468,5.616995590580063,38.128998647668915
3829.1296,5.582505443374369,39.77855862928786
3830.0105,5.544794938727706,46.07843249196092
3830.8916,5.502046158008448,39.507799094869874
3831.7751,5.453243493686907,43.4145614782027
3832.6565,5.400588313106909,42.77167061793818
3833.5403,5.3491462101672305,49.691793514539384
3834.4224,5.305839530769851,45.420999797311076
3835.3064,5.275293413962329,49.938015888383156
3836.1887,5.258492858424564,41.19744345225983
3837.0713,5.25278931793875,42.46615708651325
3837.956,5.254783740976873,52.1111654181747
3838.839,5.2630375096305535,41.41702175845466
3839.7244,5.279108690878848,45.69793983601031
3840.6077,5.305649620984219,48.70346591577314
3841.4932,5.34370287998231,42.033388574800156
3842.377,5.390390641363471,43.227529576945244
3843.261,5.440220785521441,42.33814646306467
3844.1472,5.487476001692751,36.535791103557685
3845.0315,5.528493743458909,40.5374265127047
3845.9182,5.56365665115464,42.53256499019477
3846.803,5.595961903773768,42.329401354337676
3847.69,5.629571749156003,43.29964407190292
3848.5752,5.666694808211654,37.287186779190264
3849.4604,5.706997418910532,42.26371674348824
3850.3481,5.748281442463467,33.599108708595736
3851.234,5.787608106687729,32.87321836467687
3852.122,5.822616957472133,36.25637405568797
3853.0083,5.850569833285759,37.67824827289364
3853.8967,5.869300145651805,33.62056920054928
3854.7832,5.877983920612237,37.13909490165864
3855.6702,5.878641558178877,36.17302913765344
3856.559,5.875471492739104,33.8900045349431
3857.4463,5.8726696233628655,38.83337758206636
3858.336,5.871793706097729,43.896183969019276
3859.2234,5.871096442345866,33.19819362167457
3860.1135,5.867372980937648,38.39920867843245
3861.0015,5.858686815793605,37.6182797951594
3861.8896,5.84524397160331,40.05004738343054
3862.7803,5.828105483061433,38.73372776930977
3863.6687,5.807848504370357,40.28492532355506
3864.5598,5.784350593822402,37.305659602067934
3865.4487,5.758656174237819,38.203461405770256
3866.34,5.733200992260777,37.35293284914202
3867.2297,5.711094987158356,35.72770454005299
3868.1213,5.6934162832346304,34.33332621205143
3869.0112,5.678246861641963,40.19154161239729
3869.9014,5.6610897552716315,38.337448888961845
3870.7937,5.637226681529388,37.81884314852698
3871.684,5.60443626390941,40.47877936007206
3872.577,5.563867592977583,42.31658921086939
3873.4678,5.519809341244848,42.745375291094845
3874.361,5.476239038671157,41.05951893359129
3875.2524,5.434977486453349,43.59126368925399
3876.1438,5.394358868963441,41.63450199595165
3877.0376,5.351382260839025,41.09631172189521
3877.9297,5.304631037893449,51.94433656178992
3878.8237,5.254543300694999,53.46224986578076
3879.716,5.20279587856776,42.613848810034234
3880.6108,5.149298094575951,43.61806126794898
3881.5037,5.09247016103765,47.65219796251395
3882.3965,5.029749759554491,43.91507108341145
3883.2917,4.959878104463195,48.884837252404054
3884.185,4.884506353075489,50.48749899596732
3885.0808,4.80647341514736,49.33030371831178
3885.9746,4.730000231101038,55.67920013347325
3886.8706,4.658237481037044,50.23218210164466
3887.765,4.59455189737348,55.100099935880976
3888.6592,4.541948701438541,67.24767643838038
3889.556,4.503982087425467,68.61799508433339
3890.4507,4.484584487884156,81.2102285936445
3891.348,4.486327731381919,58.646852617812655
3892.243,4.509326086858715,62.915700083687874
3893.1406,4.550505637691687,63.554478503658125
3894.0361,4.603832436420319,67.05063271279366
3894.932,4.663116417436695,53.962212018634574
3895.83,4.724010954874707,62.64495584600495
3896.7263,4.78437490701824,58.153456565939145
3897.625,4.844598094893553,52.58749084570965
3898.5215,4.905184297745281,51.90700905513279
3899.4207,4.967199068707785,49.05649394470237
3900.3176,5.030563852446086,48.245490277609996
3901.2148,5.095066732449611,48.82536557018369
3902.1145,5.160079459794236,45.6039720778693
3903.0122,5.2246808435933705,44.14669007774081
3903.912,5.289140509803464,52.36274953634559
3904.8103,5.353416022637007,43.661592486360306
3905.7107,5.417623769112388,40.53730339033695
3906.6094,5.480698238830796,42.092434202089805
3907.508,5.541757580963046,38.29735398614407
3908.409,5.60016072804113,47.94497638951309
3909.308,5.655183973409186,37.981829686253256
3910.2097,5.70692460801882,41.52048291271583
3911.1091,5.755431747134347,35.410511690831086
3912.011,5.801717615427563,38.588319628187925
3912.9111,5.846207350360621,35.638613465136764
3913.8113,5.888674550430156,39.02919976070437
3914.7136,5.927569239361322,37.718592381916736
3915.6143,5.960384474914203,34.29055943141442
3916.517,5.9856860022001,39.83663026912813
3917.4182,6.003915495822559,31.679877409392198
3918.3215,6.017932226725575,31.74299415290473
3919.223,6.0311419003247355,36.80917942126737
3920.1245,6.045604447879674,36.77145278458032
3921.0286,6.060873958570369,31.624864023162196
3921.9307,6.074700562915459,31.33977330505455
3922.835,6.085127966873529,35.28911819793146
3923.7373,6.091461308913322,33.76116397035518
3924.642,6.094299550927251,30.73070321184357
3925.5452,6.094763533906002,34.56519088992917
3926.448,6.094431526895679,34.19449102689283
3927.3535,6.0953719407795335,33.10319652133141
3928.257,6.099359194875753,35.52595794884759
3929.1628,6.106326197279492,34.24475110310445
3930.0667,6.113470224727206,32.765964653376955
3930.9731,6.116618089469312,30.639947795568347
3931.8774,6.112832963693764,34.78633295764319
3932.782,6.102341264207643,32.672482881772375
3933.6887,6.087775305724965,37.83768648609397
3934.5938,6.071833422258564,32.44179609152892
3935.501,6.055032528835145,33.01675651827421
3936.4062,6.035965774623826,36.73001688654618
3937.3142,6.012470151226754,35.39575163488395
3938.22,5.983602383369254,37.71749474376926
3939.128,5.949844159579779,37.11650184433522
3940.0342,5.91324162281488,36.56515723567515
