wavl,flux,ivar
3566.9744,33.354582181146704,8.657430869826978
3567.795,33.3140691919333,8.334993912326043
3568.6177,33.28029480714367,8.78222446727703
3569.4385,33.24942808850422,8.43435309534404
3570.2617,33.219893181592035,8.447066023140582
3571.083,33.194260089769934,8.357382787557995
3571.9065,33.17561488366094,8.019712704145318
3572.7283,33.16322217061247,7.479108391423429
3573.55,33.15207441071774,7.711170460633408
3574.374,33.13889450357786,7.3448466867276085
3575.1963,33.127049670877874,8.485625362171934
3576.0208,33.124067603610406,7.815930317307463
3576.8435,33.13481709480119,8.969527855953338
3577.6682,33.15687474066594,8.989282155972292
3578.4915,33.181621895379664,7.851513120738011
3579.3145,33.199641150773246,8.27507955780008
3580.14,33.20535230034406,7.486608257403893
3580.9636,33.19841433070504,7.577912368646495
3581.7893,33.181750496100676,7.995157296778686
3582.6133,33.158339654715185,9.516623596447385
3583.4395,33.12909227240327,8.075835455835003
3584.264,33.09415924350003,8.644795983777371
3585.0884,33.05519375529825,8.681515620325683
3585.915,33.017222004193684,8.286272158074082
3586.74,32.987006882905995,8.960206841566478
3587.5671,32.96704930703793,8.902722828335541
3588.3923,32.95159258792122,8.045530877167387
3589.22,32.927481588466605,9.402925058161633
3590.0457,32.88198668674628,8.079954703039906
3590.8716,32.81010099780685,8.238731599816896
3591.6995,32.71664652403852,8.425552366224672
3592.526,32.61313647096023,8.573143665090338
3593.3542,32.51058082966362,9.271356168839086
3594.181,32.41745588826928,8.4436321179887
3595.0098,32.337605395033314,8.307061931691283
3595.8367,32.2735662049012,9.576735081952556
3596.6638,32.226892208291815,8.142685560164766
3597.4934,32.19964949766885,8.373842915282873
3598.3208,32.19371036781539,9.26601539653195
3599.1506,32.20921674956249,8.876840515037184
3599.9788,32.245021785779954,9.25759671407691
3600.8088,32.30082584354155,8.965711611834628
3601.6372,32.37615274950159,8.93917783324726
3602.4678,32.465402195017404,8.248900485005926
3603.2964,32.55057905492896,9.727105757121741
3604.1252,32.60771221133781,8.169997720296202
3604.9565,32.62162128286878,8.605531926454242
3605.786,32.59752857257364,8.94061108915989
3606.6172,32.55555369009335,8.904289698855143
3607.447,32.51465481269392,8.086271593297466
3608.2788,32.48169509830276,8.585425531640993
3609.109,32.453441463627236,8.495488341483238
3609.9392,32.42222137418776,8.329148195463565
3610.7717,32.38038097961713,8.298367182230255
3611.6023,32.32354893177794,8.88047929748508
3612.435,32.25289836843017,9.137096540443894
3613.266,32.17673730847324,8.84658487760546
3614.0994,32.10456232352844,8.849434400337621
3614.9307,32.04174750216935,8.615331126264653
3615.7625,31.985834952544245,8.922244565094989
3616.5962,31.930698765120123,8.773191843442783
3617.4282,31.87234723896193,9.580785872851797
3618.2625,31.811965717202337,9.258507918620182
3619.0947,31.75783647507415,9.204557755679941
3619.9292,31.721039551154686,9.010823161721495
3620.762,31.709177032070453,9.088097521743906
3621.595,31.7189615695379,8.566382130083928
3622.4302,31.736963276693036,8.640159490323498
3623.2634,31.746953765793837,8.533426328883387
3624.0989,31.738243540741227,8.483013027600425
3624.9326,31.70823275540332,9.362696219133676
3625.7686,31.66102309622641,8.421352801659982
3626.6028,31.607070930751057,8.845161919909561
3627.437,31.561281544580975,8.993129216046146
3628.2734,31.537710721000558,8.725120419398923
3629.1082,31.54067715228625,8.683414720268669
3629.945,31.560506215246512,9.157286056592064
3630.78,31.58106530921782,9.024142853494354
3631.6174,31.593731863328728,9.089742576603626
3632.453,31.603543028633528,9.135342713712015
3633.2883,31.62135934776806,9.387172311664923
3634.1262,31.64889583921412,8.929015934905928
3634.9622,31.672034960827972,9.067753938221934
3635.8005,31.670417203587256,8.34644247523102
3636.637,31.63330079325513,9.197700753802687
3637.4756,31.567511826200214,9.697077939717763
3638.3123,31.492176563098116,9.440768207918255
3639.1492,31.42503145949399,9.012817921522084
3639.9885,31.374403440815247,9.031596971612476
3640.826,31.339300161086335,9.272150147061945
3641.6653,31.313529380000904,8.765672697475589
3642.5032,31.29157272868215,9.415411859782372
3643.343,31.270633030053492,8.82535958565424
3644.1812,31.25099857375823,9.132885789531084
3645.0195,31.23425024663843,9.61120467681243
3645.86,31.221519365822893,9.632743965866455
3646.699,31.211951807297964,8.706843269879458
3647.5398,31.202323712917963,9.66897065977663
3648.379,31.189080864967003,9.343678646815972
3649.2202,31.170525138539954,9.843030502692775
3650.0596,31.147490638017665,9.888170756228238
3650.8994,31.121237167885422,9.070916211913184
3651.7412,31.092210419212527,10.165386796934289
3652.5813,31.06102604299914,9.280101013374583
3653.4236,31.02953846085155,9.34919769809658
3654.2642,31.001475889913877,9.181213873841667
3655.1067,30.980708400075155,8.636924997183952
3655.9475,30.970723409365448,9.513798670554912
3656.7886,30.973928201256978,9.713072462613892
3657.6318,30.991693496829786,8.85415275097498
3658.4734,31.023602491070637,9.618972995670621
3659.317,31.066750732600315,8.831043584208098
3660.1587,31.113776050150257,9.80917799740411
3661.003,31.153633065556942,8.662739575713024
3661.845,31.175062178881827,9.40032982292082
3662.6875,31.174744988454485,9.203644435983009
3663.532,31.16084383623298,9.544114991803374
3664.3748,31.14820128348454,9.262187263327041
3665.2197,31.14648172266712,9.796183497286927
3666.063,31.152403125675892,10.411174459460472
3666.9084,31.152638366037632,9.484998332379131
3667.752,31.134100311753393,9.000290663813153
3668.5977,31.092127255728325,9.67155831768971
3669.4417,31.03236927491263,9.03652462706057
3670.286,30.96644747878383,9.791905347806907
3671.132,30.906189616010415,10.140620993726166
3671.9768,30.857945577463312,9.638572631242885
3672.8235,30.818777135687906,9.813056099761967
3673.6685,30.780517371689854,10.007210197237855
3674.5156,30.73695612969548,8.760134914075023
3675.3608,30.690277082523693,9.422432787199082
3676.2063,30.64813322313705,10.184504791343649
3677.0542,30.616272152263328,8.712188797248826
3677.9,30.593323885547818,10.227134573545035
3678.748,30.571907894391146,9.721959787587409
3679.5945,30.545078569606805,9.591137327829696
3680.4429,30.50977132580314,10.450515363245419
3681.2896,30.466768188244647,9.76316620820703
3682.1365,30.417698653878407,10.325626174242784
3682.9856,30.36463294398265,9.851338777548703
3683.8328,30.312733779603175,9.918874177750125
3684.6824,30.270926980218384,9.548205681275233
3685.53,30.249621311078158,9.763166739684838
3686.38,30.252976452693485,9.65622036372798
3687.2278,30.27540759151633,9.690389394605534
3688.0762,30.305580902170814,10.156695711576727
3688.9265,30.334559327260425,10.011502391416645
3689.7751,30.35950335339567,9.778184142293052
3690.626,30.380900172556117,10.058799517758565
3691.475,30.39699400152614,9.817665054656736
3692.3264,30.403243834362975,10.018722689982031
3693.1758,30.39558582036812,10.254380012719903
3694.0254,30.374270348900243,9.976824681481014
3694.8772,30.34432764376048,9.871479978574992
3695.7273,30.313322548512218,10.043264858672904
3696.5793,30.286796093783785,9.92553300008106
3697.43,30.26556896814231,9.757951672364937
3698.2825,30.24506531236715,9.828939892598491
3699.1333,30.21839415695296,9.661648494287789
3699.9841,30.179559960850895,10.130507434622578
3700.8374,30.125418746701587,9.60956456064672
3701.6887,30.056120276522364,10.005246836995568
3702.5425,29.97307508109959,9.899267255280627
3703.3943,29.880352447424972,10.156991539687121
3704.2483,29.784073564085613,10.25955390224444
3705.1003,29.693943383087078,10.113823881389798
3705.9526,29.618459131169118,11.221901879784994
3706.8074,29.561680336407065,10.502749085844947
3707.66,29.5224536960967,10.565905337511932
3708.515,29.496517259938408,10.6764719773001
3709.3682,29.481387186750155,10.616941874637014
3710.2234,29.47696617503246,10.449822786243304
3711.0771,29.483610826107945,10.637676877152547
3711.9307,29.4988698741995,11.250077714975305
3712.7866,29.51652149329219,10.543942020424103
3713.6409,29.528187806559608,10.636165411274058
3714.4973,29.52675879045631,10.30425367770698
3715.3518,29.508451016996013,11.064148094127976
3716.2085,29.473081413072336,10.137385205360115
3717.0635,29.423518867468125,10.65703280773422
3717.9185,29.36401607035726,10.27111553068142
3718.776,29.299863027141154,10.264811323199506
3719.6313,29.239037799149035,10.028327395798856
3720.489,29.191415997008033,10.635644274315032
3721.345,29.16611179436238,11.40241837738569
3722.2031,29.163834846473257,11.226869816753076
3723.0593,29.174131118307827,10.11121017555988
3723.9158,29.180566335381517,10.746806346402634
3724.7747,29.170605571703565,11.06173266153554
3725.6316,29.141703190638772,10.851423893815992
3726.4905,29.099305754866865,10.645861793766835
3727.348,29.051407106549526,10.149778977955169
3728.2073,29.00344686540942,10.9123164182838
3729.065,28.958011436017195,10.096160383698763
3729.9229,28.915206343557294,11.72113463292469
3730.783,28.87397896223999,11.128802175310797
3731.6414,28.832541129599342,11.298617733049438
3732.5017,28.788005457802594,11.227899123970914
3733.3604,28.7384502064226,11.39086924568853
3734.2214,28.683872255276473,11.358877338883735
3735.0803,28.628174372132463,10.961179632112795
3735.9417,28.577853666648668,10.91402264433761
3736.8013,28.541497560487038,10.565450358687954
3737.661,28.52583291531104,11.779212604335791
3738.5227,28.533046513670467,11.075324946556501
3739.3828,28.559315524649524,10.493326541931548
3740.245,28.595997607824184,11.415948516515332
3741.1055,28.63103027690156,10.697155830688569
3741.9683,28.651744750255506,11.639799376604383
3742.829,28.648032682664997,10.500393993178585
3743.69,28.6170576782841,11.563148577701105
3744.5532,28.56383576537963,12.036460914326783
3745.4148,28.498098518033874,11.773557041117483
3746.2786,28.428170189949334,11.35069466182387
3747.1404,28.36046093517042,11.628664672394601
3748.0044,28.300635909337476,11.08864582134857
3748.8667,28.257011875995246,11.944189599666815
3749.729,28.237716868859668,12.238578683949346
3750.5938,28.246480628876782,11.011653139899423
3751.4565,28.279035372423206,11.751042866423006
3752.3215,28.324829192284717,11.448184170182646
3753.1848,28.371414811963895,10.955676859293188
3754.0503,28.409051013511444,11.959868599625283
3754.9138,28.430515511550205,11.419970116067825
3755.7776,28.430981390625167,11.008833858834583
3756.6438,28.408167937502395,11.344794272752651
3757.508,28.364200915785847,11.382921602924268
3758.3745,28.30503236094384,11.981496428780257
3759.239,28.239144126952976,11.11671383630066
3760.106,28.173891400805783,11.234778223863135
3760.971,28.11485570066294,12.091310501262203
3761.8362,28.06390881373184,11.777340323328849
3762.7036,28.020027314562665,11.315460321306901
3763.5693,27.980027117714492,11.832789785361681
3764.437,27.93829707001162,11.571998423504867
3765.3032,27.888671175304964,11.491303360870779
3766.1714,27.826437296393593,11.661907047803297
3767.0378,27.752274750520805,11.56935741139389
3767.9043,27.672205429391447,11.518280866080412
3768.7732,27.595436654835204,11.679414095425827
3769.6401,27.531335286792185,12.28258031307171
3770.5095,27.48573441077818,12.860370950658718
3771.377,27.46185854790448,11.590486319446914
3772.2466,27.460036817469742,12.604664637094617
3773.1145,27.4787148683165,12.057222841766468
3773.9824,27.51475574528277,11.95162142655051
3774.8528,27.56438859183274,11.125708744044621
3775.721,27.62368105165012,11.540012330528358
3776.5918,27.69071556369704,11.993421060423266
3777.4604,27.76436017817017,11.921425593121892
3778.3315,27.843259745721742,11.094402826910155
3779.201,27.920449513586764,11.345409993555199
3780.0703,27.98396452712467,11.043907760994909
3780.942,28.021759352350323,11.031330809707729
3781.8118,28.029562598541183,11.599012246172558
3782.6838,28.014083453662142,11.598540915208654
3783.554,27.987121943111866,11.7385007870829
3784.4265,27.956626395480836,11.663122992924956
3785.297,27.922754819476324,12.135576942674057
3786.168,27.879547996001797,12.231097245482832
3787.041,27.820696631783985,12.423244304972057
3787.912,27.744821204166737,11.354309934206512
3788.7856,27.6552583595327,11.757260079816866
3789.6572,27.558039660638265,12.065444279133892
3790.531,27.455237766730928,12.060144182381736
3791.403,27.345017810606272,12.025480714952483
3792.2754,27.223079775182985,11.93008088263213
3793.15,27.087641879832265,12.917611225224594
3794.0225,26.941783137072353,12.152814682722278
3794.8972,26.789146171360464,12.942511274121426
3795.7703,26.635223819456836,12.330126112984095
3796.6455,26.486573209975315,13.165979154436783
3797.519,26.35670205718353,13.646505124669353
3798.3926,26.26351899472458,12.98545351549762
3799.2686,26.224775782128606,13.466569010588112
3800.1426,26.249620635410086,13.960270587760098
3801.0188,26.333020063496758,13.34429323431149
3801.8933,26.457488464949222,12.735741692816225
3802.77,26.601954205401782,12.885948865613312
3803.6448,26.747492277248654,12.344235042592816
3804.522,26.88380368775195,12.568680975666561
3805.3972,27.00627944500177,12.174636027085668
3806.2727,27.116232168858566,13.046914240652006
3807.1504,27.216879523863728,11.536525388562184
3808.0261,27.309689229854058,12.288505552715668
3808.9043,27.39360484204512,11.862340734490841
3809.7805,27.463333713127412,11.566789654363173
3810.659,27.513751415523274,11.758439933443462
3811.5356,27.541814154165063,11.298661590502093
3812.4126,27.54891320049505,12.267427383765675
3813.2917,27.540266707702216,11.763640264937282
3814.169,27.52442276478429,12.114601430330941
3815.0483,27.510764761555304,11.939448141925222
3815.926,27.505052020111922,11.87101456621398
3816.806,27.504561176260452,11.963721147767648
3817.684,27.497858843580204,12.21743055682432
3818.5623,27.470167177454318,11.536785962717026
3819.4429,27.41085617937265,12.28997675088306
3820.3215,27.3190857027842,12.330593269589004
3821.2024,27.202171464405065,12.295169197082327
3822.0815,27.072173376062207,12.704249283561952
3822.963,26.937704721468442,12.122258425222915
3823.8423,26.80266297198711,12.743790360569287
3824.722,26.664934114473322,13.089066726824422
3825.604,26.520693116625264,13.14615950994165
3826.4841,26.36782538823758,12.932266770574929
3827.3665,26.203084264466966,13.771983907442753
3828.2468,26.023753721634066,12.901429817114078
3829.1296,25.824611084315176,13.584503417831213
3830.0105,25.603491407908855,13.3523936112609
3830.8916,25.360082617229224,13.415479274496017
3831.7751,25.098098296481073,15.08019497043621
3832.6565,24.827644262501288,13.9297771337954
3833.5403,24.561261211466423,15.626563262024863
3834.4224,24.321202615552128,15.076971590609007
3835.3064,24.13452159607353,17.012278350369243
3836.1887,24.030959193967167,16.85220257628861
3837.0713,24.028768607034372,17.71384784894376
3837.956,24.127421442508638,15.100111119082134
3838.839,24.306399394767663,14.616643042618884
3839.7244,24.53744512576641,14.887146390772745
3840.6077,24.793735691859084,15.501147346811134
3841.4932,25.059364610658484,14.261762116720865
3842.377,25.32221287376587,13.703490840825395
3843.261,25.572992012415416,13.653811684267822
3844.1472,25.80188128983651,13.69728560098935
3845.0315,26.000375576451855,13.464732245294762
3845.9182,26.168969060440556,12.546981063328593
3846.803,26.313414229300967,13.38025021894303
3847.69,26.44377081089121,12.06778767977176
3848.5752,26.56654353852919,12.664298557058922
3849.4604,26.684551784629388,12.46807048112411
3850.3481,26.796741360635536,12.439422327591979
3851.234,26.898797069508007,12.27297705385732
3852.122,26.9865013450118,12.775830972433612
3853.0083,27.055619488344835,12.206649452770208
3853.8967,27.105749318640022,12.442879428466851
3854.7832,27.1398610378841,12.439772521880816
3855.6702,27.163606377263793,11.991024102594029
3856.559,27.181625688923774,12.092654926379094
3857.4463,27.19483220712566,12.506479453861708
3858.336,27.20013211946883,12.525759470055158
3859.2234,27.1929777864206,12.046623185752207
3860.1135,27.172039209656866,11.786318365950942
3861.0015,27.141720032783223,13.029377735780034
3861.8896,27.108976399254477,12.18750719066583
3862.7803,27.07813890700991,12.699282781797253
3863.6687,27.04904664199055,12.852245846380313
3864.5598,27.018996610820786,12.460693051644585
3865.4487,26.986492163993365,12.242956998866124
3866.34,26.950390524462282,12.564326341160779
3867.2297,26.90813972623283,13.08525798117119
3868.1213,26.854299807012097,12.305812815102888
3869.0112,26.78396900619027,12.0711381360196
3869.9014,26.695960380395462,12.408240782779695
3870.7937,26.594477310299997,13.135936194322392
3871.684,26.487371092875847,12.756295643838566
3872.577,26.379455697882122,13.232242476418037
3873.4678,26.270982768257404,12.64905614880907
3874.361,26.156196080166367,12.772838587577635
3875.2524,26.029579864448976,13.748616963355312
3876.1438,25.887563712065784,13.271052509378563
3877.0376,25.728925191357984,13.391096467857484
3877.9297,25.552070311344647,13.534941737301423
3878.8237,25.34790569491568,14.927208991735046
3879.716,25.103575684454764,15.09169160018132
3880.6108,24.80663919645674,14.520655423857965
3881.5037,24.458365584142697,15.618171606006706
3882.3965,24.069048698648267,15.717813719109902
3883.2917,23.65010224236221,15.976847115422936
3884.185,23.20929707359965,16.955783082204416
3885.0808,22.744527174889257,16.14325806779533
3885.9746,22.26186042046231,17.43911871206228
3886.8706,21.775811272236936,20.462883641456468
3887.765,21.32155548803302,20.241414823646068
3888.6592,20.94450904526621,20.729523995396242
3889.556,20.69466893742134,22.348334100264164
3890.4507,20.61311728072591,24.798376860534056
3891.348,20.71278096635953,22.846306708347964
3892.243,20.9728085164252,21.614833971441307
3893.1406,21.34799301774712,20.049793881189572
3894.0361,21.780643018118646,19.06277437982673
3894.932,22.22358950798569,18.053422646777225
3895.83,22.646756695904326,17.307341523610006
3896.7263,23.03584573459635,16.67021823046218
3897.625,23.39555479122791,16.98428383773615
3898.5215,23.734140689594266,17.48406317736752
3899.4207,24.062464712881443,15.948383913018152
3900.3176,24.3814863281029,15.197755095588832
3901.2148,24.688890182309304,14.085935539292263
3902.1145,24.979796432408886,14.828624131348901
3903.0122,25.247970253355913,14.658633670775664
3903.912,25.49157348518654,14.147227559528316
3904.8103,25.70818952078914,13.45785749035593
3905.7107,25.89950162301089,13.51552247711491
3906.6094,26.06811980420246,13.598614826769747
3907.508,26.220138401046,13.169737157017083
3908.409,26.361577667138523,13.118826244305977
3909.308,26.494423393710484,13.920068227297774
3910.2097,26.617414821314604,12.646300771062414
3911.1091,26.72551611836121,13.047516934616146
3912.011,26.816288660645014,11.698450072223483
3912.9111,26.890618637033096,12.298338382221155
3913.8113,26.95419255272921,12.559260491650042
3914.7136,27.01426539178873,12.527756444187375
3915.6143,27.075916443068518,12.07715407692327
3916.517,27.140006174356262,12.480489103092028
3917.4182,27.201161948962618,12.458232149479166
3918.3215,27.251580590881858,11.881758428755163
3919.223,27.285505699923082,12.03585408825879
3920.1245,27.303928589033404,12.43001654673283
3921.0286,27.312866627802666,13.128683935389008
3921.9307,27.31859191798333,12.370394380918304
3922.835,27.32402684343617,12.447748709058633
3923.7373,27.328805679699357,12.393179699931862
3924.642,27.331987996370316,12.285647668221719
3925.5452,27.33370931776265,12.725593022524174
3926.448,27.334804268413908,11.834419748256698
3927.3535,27.33568143616163,11.707777209055033
3928.257,27.33623163125672,11.990005659757703
3929.1628,27.33593490784909,11.595803298342684
3930.0667,27.332055687677233,13.726793772503965
3930.9731,27.316743796195595,12.292499628457156
3931.8774,27.278279261603398,12.382069872278851
3932.782,27.209442048725986,11.715288222927269
3933.6887,27.11852627649366,12.341333201444524
3934.5938,27.031761397499167,12.99563897156664
