wavl,flux,ivar
3566.9744,4.733755928821597,44.36129047439227
3567.795,4.742990666704296,48.27657649294777
3568.6177,4.7515882530362825,37.749589869729675
3569.4385,4.754573443647829,37.922836587996834
3570.2617,4.749361748362703,42.32106433764899
3571.083,4.737792246094722,55.084025385769095
3571.9065,4.724126645407202,43.80392236474313
3572.7283,4.711193995578042,32.269142435189266
3573.55,4.698343611479751,56.59396747901141
3574.374,4.683470813163606,37.0888893611722
3575.1963,4.666269322764175,38.825471186682165
3576.0208,4.648975323882066,45.100974620480805
3576.8435,4.6349800216859665,44.9988499327473
3577.6682,4.626248601150871,36.62178955235973
3578.4915,4.622697182306161,54.20643313521844
3579.3145,4.622637489352661,39.93569852702895
3580.14,4.623606204975544,49.26897850072204
3580.9636,4.6226264610247885,41.850872611269914
3581.7893,4.616827709829447,34.93717102258932
3582.6133,4.605042364881719,43.93225572192797
3583.4395,4.589324209782225,44.32942708777729
3584.264,4.575201762325166,43.25212338955345
3585.0884,4.569142850347247,56.774246129890585
3585.915,4.575103020693058,49.048365990923145
3586.74,4.59163078944087,38.76199033386521
3587.5671,4.611978038980662,38.60597405888444
3588.3923,4.627026251156311,36.57018958525269
3589.22,4.630278633663728,38.45249843778561
3590.0457,4.6206866287570385,39.26925146080803
3590.8716,4.602090009746874,50.11625563720944
3591.6995,4.579836178345413,40.19667352863391
3592.526,4.558482857616049,33.312382838838104
3593.3542,4.54123323808921,40.91143941238891
3594.181,4.530533676704236,51.36933492053978
3595.0098,4.52682295978928,46.918125758101624
3595.8367,4.527648090689072,44.71569896442323
3596.6638,4.528591887885583,47.27317412753021
3597.4934,4.526078853804415,40.51332917680485
3598.3208,4.519408135035828,62.106763139516055
3599.1506,4.510465085591863,37.35756267635445
3599.9788,4.50218448629576,54.73180422240314
3600.8088,4.496592192468687,56.75089461826788
3601.6372,4.493580971298079,39.400690353317884
3602.4678,4.490559469151847,32.345508829494854
3603.2964,4.48402376905275,57.25220886801362
3604.1252,4.472113867039087,41.342461032243655
3604.9565,4.456535373814499,53.19201067915459
3605.786,4.442602769244283,47.85899715729598
3606.6172,4.436417841041413,50.19679638905931
3607.447,4.441013152209116,54.610634471653285
3608.2788,4.453255284417879,41.011972334063266
3609.109,4.464917978328269,34.75697141905671
3609.9392,4.468172421454496,41.9794107852361
3610.7717,4.460744775952421,38.62769838255491
3611.6023,4.4467518774915185,57.17504426407831
3612.435,4.432530253269022,50.32556046420009
3613.266,4.422223005739259,40.89630290845777
3614.0994,4.416017614188585,43.519270003992084
3614.9307,4.411905332135417,54.563504886840256
3615.7625,4.407736292839042,46.75859401499847
3616.5962,4.402298620618829,36.95081849090409
3617.4282,4.395479787247919,49.24149236460801
3618.2625,4.388260206058383,51.465091649393834
3619.0947,4.382647416570182,46.68511057302713
3619.9292,4.3805024628865565,50.149234740499
3620.762,4.382358735368125,46.752528622660115
3621.595,4.387330966447164,52.819200388767214
3622.4302,4.394397240508805,57.362426170106076
3623.2634,4.403089184353196,44.99600498772432
3624.0989,4.412913328448526,37.65404715805013
3624.9326,4.422225257124049,50.69899485792133
3625.7686,4.42886927616174,38.97844326996912
3626.6028,4.43161059354067,50.08586467351812
3627.437,4.431065387813727,56.934925674818274
3628.2734,4.428689201209052,55.16881335490511
3629.1082,4.425163688833217,63.26018014211831
3629.945,4.419604700173773,48.66364699654699
3630.78,4.410278477312776,40.62841001861474
3631.6174,4.395637690840741,51.75123874585885
3632.453,4.375468524224682,56.20851203628709
3633.2883,4.351417723608602,71.39292065620603
3634.1262,4.327455291139882,64.10643764398787
3634.9622,4.309120865000459,49.50247551710995
3635.8005,4.300400539318245,70.87878270805727
3636.637,4.301433729819746,40.23112973828051
3637.4756,4.308032064645192,57.40977123099294
3638.3123,4.31397280321783,49.966259630643364
3639.1492,4.3143011618197145,44.95040190446766
3639.9885,4.307733513213493,61.051915080028444
3640.826,4.2974932158449946,44.93304631627268
3641.6653,4.289646849111459,45.64180817102658
3642.5032,4.2900268696278845,49.00786555991441
3643.343,4.301130410716739,45.79881992625794
3644.1812,4.321142656269406,60.847900202544764
3645.0195,4.345652438091794,43.15824317743968
3645.86,4.3703354042485305,49.121918534505355
3646.699,4.392559900280067,39.70825219454018
3647.5398,4.411706966843169,51.919527797440864
3648.379,4.4276017217910475,49.28961696263731
3649.2202,4.4400167867498945,41.8026667994904
3650.0596,4.448331650042666,44.468225262909556
3650.8994,4.451759961041929,36.73064821000191
3651.7412,4.448808446913825,39.16334390546977
3652.5813,4.4370943536728795,46.79647525452229
3653.4236,4.413217394198604,42.346038133113936
3654.2642,4.371585166862551,37.61544469971552
3655.1067,4.298883790052999,51.9672379567753
3655.9475,4.168300571974864,47.62520300310247
3656.7886,3.940953480262625,58.678830609156364
3657.6318,3.5906493467661034,46.889788654199315
3658.4734,3.151895096868037,48.469318373794835
3659.317,2.7398099762092407,52.812243425865425
3660.1587,2.5162284045078254,51.264983087853906
3661.003,2.5853606085617216,60.604423607039166
3661.845,2.919585477974764,56.9375777238045
3662.6875,3.379276616793536,29.678159951118133
3663.532,3.8084967656419795,49.88070898692483
3664.3748,4.1152413104801076,49.86272887680702
3665.2197,4.291610835197656,49.39983576563516
3666.063,4.371446899953957,55.62165449663829
3666.9084,4.394470473344565,48.12509435979545
3667.752,4.387644276433961,44.00026525002944
3668.5977,4.366915194007824,43.3259717482636
3669.4417,4.342725379145063,46.608392813532795
3670.286,4.322871050556579,52.72723861039722
3671.132,4.312707083856711,49.928045095037376
3671.9768,4.3139686052022315,57.153244461451855
3672.8235,4.324233560195893,54.8049680979592
3673.6685,4.338460580418981,41.04024529303588
3674.5156,4.352059664827891,53.76910587933978
3675.3608,4.362562390452954,55.36804465209653
3676.2063,4.368958863770124,55.333756036034785
3677.0542,4.369347945520226,28.918787800050264
3677.9,4.360697366971174,47.230265799340295
3678.748,4.341372072559049,49.380752105960546
3679.5945,4.314161705666994,46.33919316194527
3680.4429,4.285801896640289,56.773253395660745
3681.2896,4.263858915855193,56.809313311871755
3682.1365,4.25226258557492,58.323374222764876
3682.9856,4.2502610715112645,42.35524500134233
3683.8328,4.254294625358876,48.38988379292479
3684.6824,4.260823639118222,64.24988622351368
3685.53,4.267382588183794,51.23887319089673
3686.38,4.27215091278281,56.59395942959557
3687.2278,4.273916220901369,58.491631699070744
3688.0762,4.27363631319671,52.951017982545025
3688.9265,4.27483431128439,51.792224188799665
3689.7751,4.280622591078895,43.28284667899257
3690.626,4.289477193031903,52.88143112331599
3691.475,4.294717210778545,28.51589732419349
3692.3264,4.289339012079403,59.173348880489485
3693.1758,4.2711546333888775,51.99742091741753
3694.0254,4.243537436036695,55.2550010577797
3694.8772,4.212498178683571,47.748551280637635
3695.7273,4.184078780002348,67.58580993719691
3696.5793,4.162479083283407,42.499171235306406
3697.43,4.149735855697827,68.98971197233698
3698.2825,4.144841427970531,52.22600835710061
3699.1333,4.14441582744771,52.98402762701111
3699.9841,4.144303380098666,57.4492513522359
3700.8374,4.141480419212328,52.274208793580286
3701.6887,4.1349239242869675,53.64359605283559
3702.5425,4.125284582648738,48.49445169777647
3703.3943,4.114378788665135,63.353210139749834
3704.2483,4.1044836143645735,52.67717290829789
3705.1003,4.0978843282974236,55.897323142873965
3705.9526,4.0957253888885505,62.4477204706788
3706.8074,4.097247822986777,55.761353479114334
3707.66,4.09982385961874,62.11325932109019
3708.515,4.100432503448898,57.2514766849436
3709.3682,4.097571880738626,53.21835553632992
3710.2234,4.092066109732509,55.3069826914476
3711.0771,4.086025048510547,55.18725015059009
3711.9307,4.080942638209463,62.754290714150834
3712.7866,4.076790271909873,51.991469681404574
3713.6409,4.072370154623983,82.42473366421427
3714.4973,4.065973021612784,52.692179457304405
3715.3518,4.05620079119174,78.3991733483469
3716.2085,4.042694489866609,49.420400927146254
3717.0635,4.027070720922822,47.99265281308866
3717.9185,4.012523393488038,68.8384113414671
3718.776,4.002490231102672,56.70924703823675
3719.6313,3.9990494771433323,55.652507560202686
3720.489,4.002140791330995,46.953539151326254
3721.345,4.0103646743880175,55.66695933045698
3722.2031,4.021990676787064,54.96723149257958
3723.0593,4.034861532135003,50.985564381825554
3723.9158,4.045997114138717,63.13991013708283
3724.7747,4.051859252071208,58.160645514256
3725.6316,4.050273916791629,53.304276177392765
3726.4905,4.042311905003674,55.92181171865103
3727.348,4.031734255177078,64.01361048634945
3728.2073,4.022143511830364,56.779839076506576
3729.065,4.014722789719693,58.5557055297827
3729.9229,4.0081474759981015,61.844543296992796
3730.783,4.0006486343969465,55.6308142790893
3731.6414,3.991819299763628,61.309200194037956
3732.5017,3.9825451659857585,60.09512256703044
3733.3604,3.97391758024516,56.20682081446876
3734.2214,3.96603397127872,76.40109684451674
3735.0803,3.9582135136488588,62.63019187548886
3735.9417,3.949719213735575,63.76343796823275
3736.8013,3.940695766991506,64.90767165999787
3737.661,3.931903596507541,58.631811552237075
3738.5227,3.9239717655577757,74.68347846430734
3739.3828,3.9169581817603314,59.26922285264156
3740.245,3.910526930714078,61.71421610000307
3741.1055,3.9045409453369277,56.90270723397142
3741.9683,3.8987758277677274,64.71982991765202
3742.829,3.892593292579896,59.20977025752676
3743.69,3.8850467287469495,57.94012529460448
3744.5532,3.875741833316781,58.381614351628876
3745.4148,3.8652438304878003,63.032536972813766
3746.2786,3.854136306120668,85.60960450165688
3747.1404,3.8423448701790583,68.86836759481592
3748.0044,3.829289065600265,70.83183833597676
3748.8667,3.8153839200549178,56.10382113959608
3749.729,3.802424942837339,68.78530889605875
3750.5938,3.7929750248634524,71.290285459602
3751.4565,3.789545666751795,48.06252849436968
3752.3215,3.794177413504555,71.83061375615965
3753.1848,3.808000858411157,66.37089433400928
3754.0503,3.8298902937097723,62.982724547938446
3754.9138,3.8550498803346556,66.87805070655862
3755.7776,3.876329758288196,58.77003715368807
3756.6438,3.8872575406276235,61.247422380767915
3757.508,3.885394206832183,74.43091929257973
3758.3745,3.8736320312448087,70.23596738744034
3759.239,3.8583633348874153,65.3758343672239
3760.106,3.8458363879112265,59.15929378669237
3760.971,3.8394491055865916,68.18301123362964
3761.8362,3.838463876438527,60.45449788272418
3762.7036,3.839065634968916,53.52843264348759
3763.5693,3.8365005018317575,52.89990938386399
3764.437,3.8274953156840703,58.03452802719616
3765.3032,3.8118241724727615,66.4127809719218
3766.1714,3.7921561883166888,61.73779198404439
3767.0378,3.773084494340351,58.238752213594935
3767.9043,3.7590806871880544,58.39724599491007
3768.7732,3.7526886405878477,61.1972741234262
3769.6401,3.752983935915037,61.29607388893293
3770.5095,3.7555911554106807,66.50202984542858
3771.377,3.7552395372135448,55.73187693548261
3772.2466,3.7493058072995105,60.90573440745934
3773.1145,3.739620915003394,65.59672479963736
3773.9824,3.7310313871537564,68.91094357724641
3774.8528,3.7282779944170903,86.34167568019448
3775.721,3.7334757391245077,73.97394552330033
3776.5918,3.7455123855937735,61.191203240784645
3777.4604,3.761010992654955,65.01083520322358
3778.3315,3.776163084938347,59.72313451560183
3779.201,3.787558486100016,76.98910091134736
3780.0703,3.7929634646031714,76.75805917900132
3780.942,3.7917029536715665,67.83208592218946
3781.8118,3.7852861557357724,60.2204581624093
3782.6838,3.7769798108623895,66.78331452405116
3783.554,3.7700056637441643,70.06681520427965
3784.4265,3.7652901223242945,80.38484172962681
3785.297,3.7611912116259534,59.20763892455834
3786.168,3.755120032242382,70.40265343997389
3787.041,3.7455908370277893,65.47352231981758
3787.912,3.732740204201277,64.58876701212328
3788.7856,3.717166165911661,61.471898100238896
3789.6572,3.6995370651917105,68.5711197296867
3790.531,3.6807585053921628,72.28840160413947
3791.403,3.662743516796042,68.95302627872621
3792.2754,3.6473340903020266,66.75373279198
3793.15,3.634844288294262,70.18439035205955
3794.0225,3.6232921860759832,64.39925462167142
3794.8972,3.6091563541551293,64.40779808209082
3795.7703,3.5898607418265143,76.22624578746391
3796.6455,3.5654709170723535,66.7517935300917
3797.519,3.5395867910453287,75.77882119551855
3798.3926,3.5179029373451245,84.272132905038
3799.2686,3.5060572420910283,76.25675459625272
3800.1426,3.5069451766692525,73.73816982474439
3801.0188,3.518898446450621,76.79871869574889
3801.8933,3.5366528321404176,72.12547692099436
3802.77,3.5547633186151173,80.41707859606154
3803.6448,3.570428914772993,93.59575849368673
3804.522,3.5842971425339187,75.45448955538443
3805.3972,3.598129649087544,69.09419689763244
3806.2727,3.612832060817771,74.051285284964
3807.1504,3.62778293093054,55.71189441423465
3808.0261,3.6415860168099585,79.88751054063272
3808.9043,3.653318017667561,56.217937147931686
3809.7805,3.66282955847562,74.1276654454596
3810.659,3.6711682609716556,61.46280847634554
3811.5356,3.679961784086249,59.138175498812956
3812.4126,3.690262408986234,80.6646122412296
3813.2917,3.701278651226936,54.19967198237977
3814.169,3.710806398037936,69.40809411328472
3815.0483,3.7176653495720666,61.52213178831714
3815.926,3.7230124810389245,65.9803097319566
3816.806,3.7289007610494105,61.9424028887364
3817.684,3.7347552389186083,64.11610647667395
3818.5623,3.7360660033440634,71.79604732299815
3819.4429,3.726991987950539,57.16360071432267
3820.3215,3.7050763813726406,63.88965774389766
3821.2024,3.6733069220927415,73.7341232868698
3822.0815,3.638471040905296,75.1973073558801
3822.963,3.6063870048753928,77.3398436091824
3823.8423,3.579536231178311,73.49993582068927
3824.722,3.5565878306585965,84.34843702413835
3825.604,3.5346051066830992,67.19279432056587
3826.4841,3.5110034802836716,83.14543191410043
3827.3665,3.4839621577806064,87.0167801510534
3828.2468,3.453028123034378,81.26390692677109
3829.1296,3.4185668648747316,71.05624774311536
3830.0105,3.3820108279203933,85.25538433007502
3830.8916,3.344385807889035,83.20875363689112
3831.7751,3.3058006078995645,77.98245571907674
3832.6565,3.2660881332955793,75.01092464175656
3833.5403,3.225405112081587,69.78831976463016
3834.4224,3.186193847501476,96.29367323339017
3835.3064,3.152434481919414,90.63804385129987
3836.1887,3.128999035771608,117.46845972148975
3837.0713,3.1192760792314003,93.61427419368242
3837.956,3.124150038057391,89.54889866252006
3838.839,3.141820062026511,98.36462366702645
3839.7244,3.1690629236142596,125.40575681405284
3840.6077,3.2022152843535645,92.8199700810944
3841.4932,3.2384377924501293,91.99632083615371
3842.377,3.2756660894015863,86.35402621656615
3843.261,3.3136224068097357,62.489779958312866
3844.1472,3.353399153377056,81.11763685559572
3845.0315,3.395805915544033,85.21971307808481
3845.9182,3.4402936025514963,80.46453992809992
3846.803,3.483670357618269,69.73377459683384
3847.69,3.522433502523718,67.02110139219725
3848.5752,3.5542477216640815,76.79412926799722
3849.4604,3.5797353778096057,75.42155954428483
3850.3481,3.601447226396681,71.47339479466451
3851.234,3.6217963410184795,65.79183507536433
3852.122,3.641860992655656,62.58566275002456
3853.0083,3.6609161687467213,65.37718096272644
3853.8967,3.678019406731094,64.88817624205144
3854.7832,3.692646710924243,63.654373835113255
3855.6702,3.70470688033837,76.58080941342716
3856.559,3.7134547332763774,81.72051846896497
3857.4463,3.7174559794632445,64.55083651193226
3858.336,3.715975995169204,63.417045502618386
3859.2234,3.7101735275170937,68.10002137973689
3860.1135,3.7026565868581813,55.831178007991284
3861.0015,3.695635951092501,71.83941295793642
3861.8896,3.6891909008003148,67.994954246269
3862.7803,3.681668100616606,65.94284459117013
3863.6687,3.671660518181745,74.66941383122737
3864.5598,3.659475615101214,70.79723520043697
3865.4487,3.64719462260758,62.481465721361936
3866.34,3.6367737194236875,62.12583420141989
3867.2297,3.628583568718002,61.486485359284366
3868.1213,3.6207264278288767,75.41599923710861
3869.0112,3.610213818230293,86.35905691124054
3869.9014,3.5947453673219294,64.06742955672861
3870.7937,3.5741435238553776,70.43842520411127
3871.684,3.5501988851558357,84.94203711244245
3872.577,3.524384476086549,71.5476879462766
3873.4678,3.4966572281867463,80.19621856979653
3874.361,3.4651165381803435,78.8015869855687
3875.2524,3.428067629692715,92.93394968352789
3876.1438,3.384808479929749,67.372309793678
3877.0376,3.336158772276221,72.13836080484018
3877.9297,3.2846270991020488,85.73706240398599
3878.8237,3.2329457260145875,92.43702986579767
3879.716,3.183997436447581,88.34727833395155
3880.6108,3.1390255013568917,87.81067921257144
3881.5037,3.0976344499844717,99.20375457540348
3882.3965,3.056512490089662,88.15623043011587
3883.2917,3.010452684377674,106.98718215165839
3884.185,2.955204067108055,101.59895967504386
3885.0808,2.889540912526834,105.14483343830196
3885.9746,2.817366458635628,102.50480937588497
3886.8706,2.7448119631157124,142.23488954947462
3887.765,2.6790009046214984,137.552920698067
3888.6592,2.6257406462854425,130.14780606031155
3889.556,2.590128426035223,144.35080808527078
3890.4507,2.576459112629481,177.15916872765868
3891.348,2.5863712371144856,156.08194237254006
3892.243,2.6179607943299033,132.21438409919676
3893.1406,2.666545162723416,120.92543257576081
3894.0361,2.7259016742108653,133.36766385230274
3894.932,2.790732839738731,123.2596692084932
3895.83,2.8570128168848963,133.28949861236785
3896.7263,2.9217226667235936,103.92850078977317
3897.625,2.9841840091569045,106.98855956820722
3898.5215,3.0442366536011916,112.1252560612306
3899.4207,3.1020315151805162,113.73146207894952
3900.3176,3.155842662671938,70.76625979967939
3901.2148,3.2043841731826648,96.19993757675438
3902.1145,3.2484685441206462,78.1784716818844
3903.0122,3.2911738565373625,86.21843538785372
3903.912,3.3364139801178943,85.54867398878605
3904.8103,3.385490528548505,88.66493464882949
3905.7107,3.4370823340122416,63.83543698869754
3906.6094,3.4874618589803656,78.12852495731913
3907.508,3.533015449325796,68.40167599646038
3908.409,3.571547484351379,63.766223415146406
3909.308,3.603082027646047,74.00687405730322
3910.2097,3.630382634802747,65.12945389436275
3911.1091,3.65700054248853,64.55846823801272
3912.011,3.685820533171192,60.39000964389699
3912.9111,3.7168878041252005,57.728281682468634
3913.8113,3.7477901612310047,67.2098219882703
3914.7136,3.7752758172525698,63.69056418430996
3915.6143,3.7975491653402744,64.67676605435011
3916.517,3.8158121414880504,64.82638706930234
3917.4182,3.8326371305240423,66.52880598198446
3918.3215,3.849944428962399,59.3693384077584
3919.223,3.8673922751156287,66.53430149251339
3920.1245,3.883343952584536,63.09167646329712
3921.0286,3.896400235160777,60.91619523572495
3921.9307,3.90640063528706,55.667529672991044
3922.835,3.914383598354986,64.70774544839098
3923.7373,3.921243794465664,58.71226856013894
3924.642,3.926942919321131,64.80715529157025
3925.5452,3.930496631210203,62.622770987819834
3926.448,3.9310602657763964,53.20535915054088
3927.3535,3.928627694893316,61.034894281073136
3928.257,3.9238285914159494,58.508923957505715
3929.1628,3.916869233142929,57.910415222660134
3930.0667,3.906619795061971,62.94530027692564
3930.9731,3.890204388191507,66.92383490215906
3931.8774,3.8645353534835842,63.271952657205176
3932.782,3.82924197358077,61.93613437478116
3933.6887,3.7900126388790776,63.10017630529462
3934.5938,3.758307512246443,52.778478336131926
3935.501,3.7444430877852692,99.59071395529992
3936.4062,3.750347841954512,71.74737715298488
3937.3142,3.7677821774790887,61.65852232963368
3938.22,3.784611793883488,60.53180044916793
3939.128,3.7928962414105394,71.57986750133925
3940.0342,3.7909718019924923,64.88610270307157
