wavl,flux,ivar
3566.9744,13.460093665877318,12.37735995976044
3567.795,13.472426479507313,10.149787482503216
3568.6177,13.466522182155536,10.776400437341891
3569.4385,13.438499367500029,13.192565120293374
3570.2617,13.39233551968219,11.24251302081909
3571.083,13.338364595480925,12.122166533774225
3571.9065,13.288905204365365,10.804852503585728
3572.7283,13.25508919955563,12.05948488837531
3573.55,13.242060457642799,12.535412414475932
3574.374,13.24743007441402,11.873286090327131
3575.1963,13.262995807935757,10.924068172915073
3576.0208,13.280376640327399,11.162531621254686
3576.8435,13.29568380648576,14.113933068285778
3577.6682,13.309814991013015,11.396702814319395
3578.4915,13.324137763782334,13.018781513059647
3579.3145,13.337577611270264,11.461181396522653
3580.14,13.347238298602628,10.947187147489307
3580.9636,13.350495648768739,13.543806552992443
3581.7893,13.345437881800859,12.944765147768752
3582.6133,13.329717915039447,10.13005455506044
3583.4395,13.300842685121966,11.98705627934884
3584.264,13.25877594182485,11.653476063331029
3585.0884,13.20696067509603,12.14847431763715
3585.915,13.151146966574421,11.424604588576507
3586.74,13.097324441445373,12.993036526260912
3587.5671,13.04920474475765,11.535784294845815
3588.3923,13.009377316529953,14.94237902016245
3589.22,12.979133755949153,12.57936617214074
3590.0457,12.959025340389669,12.99479889902461
3590.8716,12.946881295347918,11.98512787228029
3591.6995,12.937554341835332,11.234778393524346
3592.526,12.924948648282527,12.33030689945139
3593.3542,12.905620093683002,10.923536062901517
3594.181,12.880973169222067,15.383556684398453
3595.0098,12.855185057469269,12.279782222491818
3595.8367,12.83256233121265,11.782850864284374
3596.6638,12.81619475815154,13.277146767056104
3597.4934,12.809401133397637,13.90041291111376
3598.3208,12.815532197870068,13.880156226437588
3599.1506,12.834502205963101,12.757603064571954
3599.9788,12.858832658819452,11.967393928136389
3600.8088,12.87488024182307,11.884886209756104
3601.6372,12.869896793966964,12.736674322861868
3602.4678,12.84073381859861,12.463950854798258
3603.2964,12.796393750489075,12.713359800450336
3604.1252,12.752123878011975,12.274349901790785
3604.9565,12.721431654526208,13.41685591522161
3605.786,12.71078242540685,13.100340208753307
3606.6172,12.717485689291275,13.283761668867948
3607.447,12.731612108277911,11.07925408516845
3608.2788,12.740859517269527,12.798914381932077
3609.109,12.7371731970736,14.110570708119548
3609.9392,12.721136848742226,13.23996596470627
3610.7717,12.699983828060628,12.219044310448586
3611.6023,12.681637397978484,13.147575973634227
3612.435,12.669385437577708,14.379589707462076
3613.266,12.661936360986571,13.437352332450029
3614.0994,12.655841118467277,13.397388715222693
3614.9307,12.647707110506596,13.518868884390825
3615.7625,12.634491959585374,14.994292542948575
3616.5962,12.61379215934855,13.844153032133212
3617.4282,12.585047454039481,14.202370291321301
3618.2625,12.549961502978897,12.590535708524161
3619.0947,12.51228813658001,12.667186157199676
3619.9292,12.475294331607317,13.968097087379089
3620.762,12.441155031022957,13.372432141502326
3621.595,12.410615949883827,14.267932659830969
3622.4302,12.384423621568489,14.46404666428407
3623.2634,12.364021742553387,13.614592106075955
3624.0989,12.3504872846368,13.909225128271991
3624.9326,12.343713349440817,14.497625912660812
3625.7686,12.341612804036675,14.002405407950818
3626.6028,12.341132054716454,12.406097239515063
3627.437,12.33976574636162,14.194163193862229
3628.2734,12.336341882343511,14.20629784745737
3629.1082,12.330387125765593,13.614319012384016
3629.945,12.320901592952458,14.757898457517987
3630.78,12.30623449935634,13.108286739215536
3631.6174,12.284913189514404,14.673188895664518
3632.453,12.257416091837916,13.351775924997924
3633.2883,12.226365174524858,13.503768346956695
3634.1262,12.195736747972,15.23784452077658
3634.9622,12.169652832163596,13.780427352285702
3635.8005,12.150769591755665,14.999828120483933
3636.637,12.140156641699082,13.933390453544321
3637.4756,12.136226092349473,16.744573424968905
3638.3123,12.134870507234687,16.541332205111686
3639.1492,12.130951054636181,15.487454582414747
3639.9885,12.120843980697146,13.128149722757247
3640.826,12.103875161813574,14.265387649901061
3641.6653,12.081609518561283,15.06297525989152
3642.5032,12.05728200319171,14.188286147792931
3643.343,12.034962999776095,16.541667418899042
3644.1812,12.01858667435115,15.066070324852237
3645.0195,12.009139722595428,17.14290574333044
3645.86,12.003438385518669,14.411217229244961
3646.699,11.995767101463453,16.057288673033185
3647.5398,11.98142502105399,15.259972905765506
3648.379,11.959391239341745,15.183329235645658
3649.2202,11.931644678948752,15.627469385989365
3650.0596,11.901501684854312,14.175305134232987
3650.8994,11.871810501261791,16.395553259443542
3651.7412,11.845311522059175,13.996796822246505
3652.5813,11.824921144102602,16.64027209326308
3653.4236,11.812292146827,15.692482567840056
3654.2642,11.806609280632658,16.018066963241957
3655.1067,11.804056605408444,15.653890693860466
3655.9475,11.799406191622506,14.772188777846793
3656.7886,11.78817297341772,13.758204858416251
3657.6318,11.768390011571297,15.195013488310263
3658.4734,11.741368469194164,15.599909739709188
3659.317,11.710258751922067,16.436624703952596
3660.1587,11.67844733254754,15.59620050945825
3661.003,11.647584754559116,15.174969443571587
3661.845,11.618347213791738,14.140162140205382
3662.6875,11.591141944643736,18.74207868514623
3663.532,11.567384037034579,18.285778026385497
3664.3748,11.549016364063673,14.732418719294092
3665.2197,11.536476843887693,16.027727995236894
3666.063,11.527805306488906,17.442103001106336
3666.9084,11.519126737203496,15.583262839335264
3667.752,11.507478426189564,16.851553026195223
3668.5977,11.493371935845884,14.478666358969225
3669.4417,11.481372731640791,16.400357532753965
3670.286,11.47656942904705,15.806352679603329
3671.132,11.479868992794351,16.461702642239526
3671.9768,11.486124114172343,14.321589584360183
3672.8235,11.487758126174926,14.765152656842282
3673.6685,11.480347306435483,14.589301790492433
3674.5156,11.464681016589665,16.179274298091727
3675.3608,11.444071370438287,16.810721224453488
3676.2063,11.420302478783324,17.20655798451768
3677.0542,11.393058579406844,14.825573260376022
3677.9,11.36273838253132,14.523313332165419
3678.748,11.332195754328886,18.256661503812655
3679.5945,11.306393716678054,16.631620693580164
3680.4429,11.288333283665668,17.385320376746634
3681.2896,11.276897645601114,17.60685180700607
3682.1365,11.26736218702712,19.30955160322161
3682.9856,11.254764973480485,15.550393422790583
3683.8328,11.236871648017846,17.282621633139417
3684.6824,11.214950341808015,15.579939389656111
3685.53,11.193462110331874,19.418129681438383
3686.38,11.177730248358996,18.670016484517845
3687.2278,11.171513697423077,18.53341643717421
3688.0762,11.174468401930264,18.590013201747915
3688.9265,11.182314962826329,16.658753113716035
3689.7751,11.18888592712669,16.51638147509634
3690.626,11.18883865770217,18.382139435292725
3691.475,11.179154618256302,16.403907856154262
3692.3264,11.159583456138565,16.2285123029494
3693.1758,11.132598690731166,16.84350165998015
3694.0254,11.10221882770621,16.670038314190414
3694.8772,11.072702030279219,18.491168825478077
3695.7273,11.047281270075693,17.0904211478757
3696.5793,11.026649892593479,17.31816275255214
3697.43,11.009305394595476,16.999088648539477
3698.2825,10.992522208645578,15.161412795670675
3699.1333,10.97487494054159,17.999433201990215
3699.9841,10.957265636138004,16.962097415418167
3700.8374,10.941928586319456,18.617268679258405
3701.6887,10.930041482833456,15.326955857147135
3702.5425,10.92014336781644,17.38226689958873
3703.3943,10.90971151098807,17.25217685717349
3704.2483,10.897465503708585,18.1435584850192
3705.1003,10.884774733796414,17.24928560956949
3705.9526,10.874341657818333,18.89265276558389
3706.8074,10.868092740126471,17.144986661756008
3707.66,10.865555572884329,18.15438342769707
3708.515,10.863610976569888,19.183607363703732
3709.3682,10.858022997950682,19.07047088116165
3710.2234,10.845695688687107,17.805720275099382
3711.0771,10.82647723656711,19.07501253232407
3711.9307,10.802676312543984,15.888039622538056
3712.7866,10.777023479791179,17.36942602576384
3713.6409,10.751292560650697,17.15366117970346
3714.4973,10.725930845003765,17.220105751100142
3715.3518,10.701610029936033,17.519189278663333
3716.2085,10.679244005294454,18.71501973397602
3717.0635,10.659953176115222,20.96321263041553
3717.9185,10.644027646130086,17.287021671988114
3718.776,10.6309485309339,19.49558766823015
3719.6313,10.619832370873016,16.83843975137083
3720.489,10.609760268876153,16.676969684801232
3721.345,10.600394194095024,20.115329820998323
3722.2031,10.591660799692507,18.422366214535945
3723.0593,10.583503712579798,17.430742195873247
3723.9158,10.575873690350193,17.883443898480458
3724.7747,10.569717620168966,19.245782261767744
3725.6316,10.567405838719468,19.756619059463468
3726.4905,10.571160351351583,18.834470961699772
3727.348,10.580415806191493,18.07930405351231
3728.2073,10.59044397183475,18.06803148252695
3729.065,10.593820211675254,18.408001393232173
3729.9229,10.584377261610259,16.674968337257525
3730.783,10.560422947423316,19.087967697122988
3731.6414,10.525701657645522,19.45696183551037
3732.5017,10.486820265056028,18.9916891464964
3733.3604,10.450566715412743,17.85085948752248
3734.2214,10.421044289470908,21.432559520926812
3735.0803,10.399826200893852,20.372689929722437
3735.9417,10.386267043129674,22.640796611088348
3736.8013,10.379333690070881,21.223721409343316
3737.661,10.378116562133943,18.91759138435436
3738.5227,10.381607894474987,20.251673645442448
3739.3828,10.387480721396837,19.41081181402182
3740.245,10.391675765164223,19.03328089394591
3741.1055,10.389648625875692,20.589710942654506
3741.9683,10.37877859509254,20.280937161607827
3742.829,10.359933194268239,19.704217050544212
3743.69,10.336759570831049,20.629234300843834
3744.5532,10.313618113194176,23.556799367848473
3745.4148,10.293655736673667,19.070465750748745
3746.2786,10.27741371831516,19.176740325750508
3747.1404,10.263724140198262,21.890059591514675
3748.0044,10.250587122962942,21.206094291466567
3748.8667,10.236023081757263,21.96559106102968
3749.729,10.217869286133732,20.64111237133507
3750.5938,10.194669835057374,21.261067227019826
3751.4565,10.167926420841225,19.40832189994856
3752.3215,10.142683816524826,21.969378858091225
3753.1848,10.12569743450768,25.235596590586436
3754.0503,10.120413121260956,18.97575098527734
3754.9138,10.124073988058704,21.08240740926363
3755.7776,10.128673251931652,20.000964624813346
3756.6438,10.125672116318578,21.1051827572588
3757.508,10.111131154019262,18.421385752672176
3758.3745,10.087838327166082,20.628098080773714
3759.239,10.063387781983337,21.773603846879436
3760.106,10.044775201067003,20.180636379435146
3760.971,10.034553512513561,22.15447723286061
3761.8362,10.029777846740087,24.16189860984459
3762.7036,10.024846989237775,21.0205674856388
3763.5693,10.015108850611863,21.570578569822516
3764.437,9.999207443634521,19.7565080638166
3765.3032,9.97960891566224,20.65948656277358
3766.1714,9.960685506911911,18.26372678810234
3767.0378,9.94599978914547,23.719245386123283
3767.9043,9.93547909420615,20.36120352409485
3768.7732,9.925464197814636,20.81223299379934
3769.6401,9.911576612925062,22.06152565457978
3770.5095,9.892099332621836,21.619369049977827
3771.377,9.869655061944348,21.720573486243243
3772.2466,9.849043157521852,19.53395210160539
3773.1145,9.834409267208828,19.797880992715015
3773.9824,9.826795070571167,22.03315745423586
3774.8528,9.824391594509496,20.95715887274349
3775.721,9.824166274449288,21.52354749623953
3776.5918,9.823657069504181,23.192467404667347
3777.4604,9.82183013335043,22.189977000318212
3778.3315,9.818764190223154,20.497303977372276
3779.201,9.815008688342242,20.361922022518055
3780.0703,9.810986722881232,22.583248451974978
3780.942,9.806622550212689,22.856992695142537
3781.8118,9.801319716928017,22.283497293194113
3782.6838,9.794283660679495,22.104932051566347
3783.554,9.78501912973054,24.461174644989935
3784.4265,9.773067619867954,23.334493560818245
3785.297,9.757971003232623,22.991078651783216
3786.168,9.739456724492241,23.09598371496999
3787.041,9.718178731172436,22.72187112222036
3787.912,9.695826368342022,22.515579060117293
3788.7856,9.673729226120862,21.224375998690462
3789.6572,9.652255888044861,23.748017306418927
3790.531,9.630192267615367,22.061832959906603
3791.403,9.605750341678746,24.14217988607551
3792.2754,9.577109608086905,21.65264732863077
3793.15,9.54341445543438,22.896219010807766
3794.0225,9.50571415491214,22.843020671497708
3794.8972,9.466584215867975,24.285930419038863
3795.7703,9.430308670457181,22.838855812042485
3796.6455,9.400953803514629,26.888201720064615
3797.519,9.381333942149642,23.355595586986226
3798.3926,9.371528481908985,23.339422841020923
3799.2686,9.369777784311914,26.035455950130885
3800.1426,9.374357940936687,24.64241768761932
3801.0188,9.385340431806133,21.39699785047001
3801.8933,9.404550947304571,22.99833191688186
3802.77,9.433746067988267,26.240864514615623
3803.6448,9.471330320321638,22.832704695443912
3804.522,9.511306749764177,23.984839372369393
3805.3972,9.544047019595151,21.998562170628198
3806.2727,9.561098722299425,20.792696256593533
3807.1504,9.55887260315836,22.542511085289064
3808.0261,9.540254148075618,23.227363764361357
3808.9043,9.512593370530121,23.150259234883126
3809.7805,9.48443384521877,24.73618972217211
3810.659,9.461996554447554,22.490520229791763
3811.5356,9.448286918504486,23.529767926467485
3812.4126,9.44310345574463,27.306210954988835
3813.2917,9.444629902493917,24.429541507114894
3814.169,9.450549322148515,22.260671641965033
3815.0483,9.458381817207766,24.35128900191377
3815.926,9.465141450780887,24.55751766924113
3816.806,9.467684487133864,23.71250167528643
3817.684,9.463561963834707,25.315014279517268
3818.5623,9.451751757639174,24.582958759158007
3819.4429,9.432255340941992,23.681623877938193
3820.3215,9.405658019719523,21.997531633309812
3821.2024,9.372710971105603,23.853280721857224
3822.0815,9.335303733084375,25.10804782849291
3822.963,9.295861808480606,25.710172035126213
3823.8423,9.256942789836897,26.356111274271715
3824.722,9.219394310197435,24.84010724220731
3825.604,9.182536410524065,24.946678179054214
3826.4841,9.145504561197429,24.50412158268605
3827.3665,9.107693130625211,25.31257394908639
3828.2468,9.06949877662697,26.061847968661887
3829.1296,9.030880163438807,27.892085811297342
3830.0105,8.991778567278134,25.056386563875567
3830.8916,8.951995799088124,26.803983403266933
3831.7751,8.912175005302258,25.18976115949894
3832.6565,8.874026902022461,26.711334843122028
3833.5403,8.838866182798931,25.4480055721429
3834.4224,8.808030643895489,27.054184668928883
3835.3064,8.782896444062606,27.835596227739938
3836.1887,8.766203239379733,25.6069709774005
3837.0713,8.760914399330842,32.43374926539066
3837.956,8.767958792176339,24.916832119154044
3838.839,8.784108935331862,25.29850112262176
3839.7244,8.803312781011535,26.321538688245944
3840.6077,8.820358784837262,27.662680696635828
3841.4932,8.834259129026906,28.048307435027315
3842.377,8.847421422265134,25.445518588056853
3843.261,8.862647764678986,25.803990281445184
3844.1472,8.880348240023919,26.8777660942644
3845.0315,8.898423119857139,26.584487521209677
3845.9182,8.914851396771175,26.750456804049875
3846.803,8.929774755887458,28.250454801535465
3847.69,8.946282183046316,28.65388517849673
3848.5752,8.968026479424887,26.858376484273283
3849.4604,8.996323004486497,25.881626034483165
3850.3481,9.028417248657318,27.626360808281913
3851.234,9.05838278931636,25.30689411371267
3852.122,9.080919073167136,24.421212340957748
3853.0083,9.093555285730119,25.662870622470635
3853.8967,9.097301156898675,26.712049339533355
3854.7832,9.094436765390043,23.56515322151153
3855.6702,9.086736690504942,26.157909241913746
3856.559,9.075298252159833,25.566769763839332
3857.4463,9.061804912647025,23.94085267404239
3858.336,9.04901102424838,25.539442836873825
3859.2234,9.040195886650807,24.58764761032115
3860.1135,9.03720060706829,27.01983730047122
3861.0015,9.03912872600939,29.07060182667181
3861.8896,9.04231853824506,24.15018383044207
3862.7803,9.042230654804834,25.70846808455303
3863.6687,9.03576441938913,28.50168723967999
3864.5598,9.022332847222538,24.641977363161427
3865.4487,9.00352858560635,25.91160710450849
3866.34,8.981581168465535,27.879857054729328
3867.2297,8.958358850293866,26.411889233439812
3868.1213,8.93394073972746,28.148030119201405
3869.0112,8.90685145231278,26.217650908439506
3869.9014,8.87479788111009,27.803163464018354
3870.7937,8.836452921146545,27.702451673349113
3871.684,8.792810919157391,25.873789775330284
3872.577,8.74630609319937,29.67138728542841
3873.4678,8.700443917961291,28.38201971475863
3874.361,8.657410832735295,28.53852297189469
3875.2524,8.617646023465896,28.302770898664534
3876.1438,8.578519494898087,29.993979043997246
3877.0376,8.535306223322404,28.07803337421333
3877.9297,8.483637483391504,31.625900948863055
3878.8237,8.421475436284437,28.946723571152987
3879.716,8.351519022116115,30.090999864780358
3880.6108,8.279032481427404,29.850464430734373
3881.5037,8.209610333509083,35.122558772197706
3882.3965,8.14459446848361,29.97945279364209
3883.2917,8.080966326484784,30.151481553545747
3884.185,8.014488047022777,33.03994879733308
3885.0808,7.942238465630726,32.30319982224663
3885.9746,7.865848960112955,35.58679584592212
3886.8706,7.789389947166434,36.34233288984298
3887.765,7.718703421697871,36.40632816814499
3888.6592,7.658614825445512,35.950600460282864
3889.556,7.612951302614902,36.640703342079604
3890.4507,7.584944455173573,38.603694230830456
3891.348,7.576446047938667,37.59434895174282
3892.243,7.587902905224231,38.594680397948494
3893.1406,7.617684221333831,37.752849471125536
3894.0361,7.662104837413206,33.58316305442156
3894.932,7.716994268094602,39.30830237374819
3895.83,7.778675291737373,35.1487983486601
3896.7263,7.843902934632468,37.0001300389058
3897.625,7.911185051624957,33.79668283016135
3898.5215,7.979808480052719,30.064359050926196
3899.4207,8.051024647424953,33.21800300210088
3900.3176,8.12524978080875,30.940212821198752
3901.2148,8.201717688910987,33.29622963883111
3902.1145,8.277485808313473,27.983630498827857
3903.0122,8.34841350860124,32.31082343233043
3903.912,8.412622704538274,29.317801191521017
3904.8103,8.470142068788773,30.68127890069034
3905.7107,8.523041766900615,31.618897867918665
3906.6094,8.572658859731161,28.325614350887143
3907.508,8.61957681887342,29.052569209511628
3908.409,8.663871568639568,30.053658282073762
3909.308,8.70589219081162,26.46090329336167
3910.2097,8.747326250516469,27.73212608695225
3911.1091,8.789638542970865,26.627357179324218
3912.011,8.833494076204317,32.312508899781015
3912.9111,8.87682554754712,29.071261867533806
3913.8113,8.915873809159917,27.032112442927225
3914.7136,8.946884353558927,26.38906834017013
3915.6143,8.96834686771844,23.314300796884222
3916.517,8.982302361819386,26.618678299274187
3917.4182,8.99251427751355,23.84880879930234
3918.3215,9.002388418304005,24.145255011797566
3919.223,9.013475853350773,27.27398485859278
3920.1245,9.025979542418913,27.027630663280082
3921.0286,9.039613128509258,25.913281803657437
3921.9307,9.053879284291584,23.78600095206878
3922.835,9.068122532435273,24.30311040261833
3923.7373,9.081142319573544,25.105589473040855
3924.642,9.091626265922223,27.37359520962933
3925.5452,9.098166705646072,24.86707208047559
3926.448,9.099693011453715,27.212258000043516
3927.3535,9.095755961507054,24.75518930630231
3928.257,9.086919130603462,23.431770734402885
3929.1628,9.074343207404155,27.619074053626502
3930.0667,9.059019183081771,25.1931320605517
3930.9731,9.04101444656129,25.638430156495335
3931.8774,9.020367204561822,26.580353707203333
3932.782,8.997868025688666,26.415851690428973
3933.6887,8.9754463439484,27.827731894462275
3934.5938,8.95512942293499,27.19593343150431
3935.501,8.93716513165283,25.03616689632273
