wavl,flux,ivar
3566.9744,6.237621728401707,34.422197206870784
3567.795,6.247307548966423,37.79380229681838
3568.6177,6.256039886955574,35.43277246736583
3569.4385,6.2603743589381615,34.18685435147482
3570.2617,6.258303821071326,37.52171470004506
3571.083,6.249567108853611,29.52914856230429
3571.9065,6.2356483170807095,44.981562862960615
3572.7283,6.218787007538621,34.96656477933653
3573.55,6.2000585501126695,32.365197981361554
3574.374,6.179272227689471,35.453675379381025
3575.1963,6.157224369359361,34.77064065000076
3576.0208,6.137164428139711,30.84302615608111
3576.8435,6.123937790258317,45.75963162261229
3577.6682,6.119992352513162,42.322863290982546
3578.4915,6.123121834481728,44.319069932093704
3579.3145,6.1275542639732095,37.777654833527095
3580.14,6.127681189398585,31.760132629081106
3580.9636,6.121041892204566,30.141534189462025
3581.7893,6.108652587807697,31.786185621978156
3582.6133,6.093225358327862,39.52958311984766
3583.4395,6.076844110802901,48.051408779977194
3584.264,6.060671780637304,40.260829243844825
3585.0884,6.045872727896734,35.04779971084336
3585.915,6.035112807131657,36.48408179276549
3586.74,6.032526310635972,40.00850753632687
3587.5671,6.041697703776004,36.58172137335334
3588.3923,6.0629636560483195,38.542945270404836
3589.22,6.091583407573141,36.6125026158018
3590.0457,6.117681304112043,39.446060414660174
3590.8716,6.130540618629472,34.08245137393593
3591.6995,6.124033728906003,31.606343114057662
3592.526,6.1004625596381175,37.50630500235576
3593.3542,6.06895772433908,40.926891573970266
3594.181,6.04050757452944,35.44506780525067
3595.0098,6.022393736764514,38.041031364884546
3595.8367,6.016367516971408,37.5586941456005
3596.6638,6.019120001214582,34.96312214734933
3597.4934,6.02552059472964,42.32664758470757
3598.3208,6.031926728699736,42.33462361309451
3599.1506,6.037720352253937,38.20367150943514
3599.9788,6.043326441815163,48.53336015656715
3600.8088,6.047312881995575,40.397420785072406
3601.6372,6.045534882911976,31.736119055901302
3602.4678,6.033452027307623,28.652118447503913
3603.2964,6.009308606577829,43.44846237750136
3604.1252,5.975683631975316,33.511895456463904
3604.9565,5.9394167179482755,45.6781976784995
3605.786,5.910004391450013,39.69169982556281
3606.6172,5.895000950072407,43.7271337285317
3607.447,5.8964400140072994,38.448624025796256
3608.2788,5.909699968713766,33.720130216855836
3609.109,5.926834934921639,33.879067652063235
3609.9392,5.941263095141493,39.51823443675088
3610.7717,5.949732687536856,34.97659106532653
3611.6023,5.9513215343338475,47.21681851357151
3612.435,5.945832287384035,34.304871476134736
3613.266,5.933362820405017,40.94307079055692
3614.0994,5.915023863243759,37.28788122174134
3614.9307,5.8937903145548995,42.719209541430196
3615.7625,5.873714534367607,40.82282878219014
3616.5962,5.858721609993517,43.87371373712192
3617.4282,5.851322641109263,39.876900762243295
3618.2625,5.8519695477542975,38.664052949951824
3619.0947,5.859464845323095,42.14538946874808
3619.9292,5.871124201917719,40.60898248555264
3620.762,5.882633413235848,37.627099229417844
3621.595,5.8891842390079905,34.93896770222837
3622.4302,5.887566971054146,39.30801815039997
3623.2634,5.877819305551416,36.8285195453406
3624.0989,5.8624248131620265,38.58240876508618
3624.9326,5.844455997123572,41.6900006600098
3625.7686,5.826242673574461,36.49588093807991
3626.6028,5.809962270000329,37.215637763843006
3627.437,5.797729891479854,41.798728090027026
3628.2734,5.791624450078026,37.81306981905683
3629.1082,5.79353570336317,46.60388830302294
3629.945,5.804918442515116,44.954366197656164
3630.78,5.825827778649883,47.31319162411137
3631.6174,5.853759910093482,38.71413132216118
3632.453,5.88300392439483,36.85609770203281
3633.2883,5.9071469163424455,37.008482466514565
3634.1262,5.921981672960298,43.142643400837436
3634.9622,5.927198167917632,42.24437446788329
3635.8005,5.925823243667095,41.75190694046207
3636.637,5.921845200578968,56.87545219255483
3637.4756,5.918618572182655,33.751356382634036
3638.3123,5.918645689803994,36.4704064567833
3639.1492,5.9236249197688,37.174283369818816
3639.9885,5.933969323333618,40.919204437401326
3640.826,5.947899225546544,31.436259676893563
3641.6653,5.961890672133227,34.60058041787301
3642.5032,5.9720004350261355,42.590648353275895
3643.343,5.97588495917372,41.31868816992755
3644.1812,5.973623687625612,42.40653554635952
3645.0195,5.9674304166831735,35.12736389657764
3645.86,5.960128806704825,38.263185178674235
3646.699,5.953560434616788,37.83365781908434
3647.5398,5.947791633193691,40.315848010717446
3648.379,5.942023172862114,40.878120100543285
3649.2202,5.935690904968806,42.72921559418146
3650.0596,5.928769450751493,40.62247419618014
3650.8994,5.920895017489527,36.74329641578263
3651.7412,5.911040337359295,44.677367395889306
3652.5813,5.898255612650789,38.13510900524851
3653.4236,5.882479782508841,29.052081410603414
3654.2642,5.8652629383827986,41.587065925280235
3655.1067,5.849561843606304,39.08079538277422
3655.9475,5.839699117035632,36.7478001128003
3656.7886,5.839611469970078,39.71772222471654
3657.6318,5.850045686576954,45.381659070756236
3658.4734,5.866014017495251,39.91173029959604
3659.317,5.878534759374263,41.919660420394614
3660.1587,5.880159632084257,37.45919034872308
3661.003,5.870423332740402,39.25077314159102
3661.845,5.8557540966824,34.02765112578883
3662.6875,5.843993228461205,38.65272717738077
3663.532,5.839183507584242,38.0164243634273
3664.3748,5.840732887808505,33.66065795402325
3665.2197,5.846374836513471,35.82956996782894
3666.063,5.854892112194248,42.67816378402711
3666.9084,5.866265606574461,36.05226920672806
3667.752,5.87992935022505,36.9649908573611
3668.5977,5.893810124584904,37.07210282287091
3669.4417,5.904219157507314,42.71597837755781
3670.286,5.907412729070091,33.584869551708145
3671.132,5.9012688556739175,35.16261710642858
3671.9768,5.886371557255047,43.10473746558462
3672.8235,5.86505127943783,39.46200601436429
3673.6685,5.839948766865116,39.422730554499445
3674.5156,5.813162786553335,41.57537158660446
3675.3608,5.787607296670801,34.73134796543343
3676.2063,5.767005817957129,43.6481587328621
3677.0542,5.754823039366507,39.618038031226014
3677.9,5.752331039530402,40.17372798474701
3678.748,5.757887921910627,41.46440342827082
3679.5945,5.7684668673320445,41.149267701978175
3680.4429,5.781644910573038,38.67907201057728
3681.2896,5.795881196029963,40.297974522720594
3682.1365,5.80938710735935,47.892467575074576
3682.9856,5.818882291249756,40.94768746463356
3683.8328,5.820512422019941,37.62411927807882
3684.6824,5.81256073525983,31.991826575181857
3685.53,5.797169722205752,32.718861913219804
3686.38,5.779458099175855,44.53697829632544
3687.2278,5.7652758999204075,46.55017875004637
3688.0762,5.758370346599076,40.34160455294692
3688.9265,5.758932987247294,51.49594855729825
3689.7751,5.76327353879446,35.1438293191725
3690.626,5.76555960214667,47.69804114948366
3691.475,5.760889297676351,39.48464400286098
3692.3264,5.747704614718705,47.29188267142198
3693.1758,5.728090924024978,47.14913758487358
3694.0254,5.706325981787768,39.9404360065633
3694.8772,5.687883908997363,39.91950530375838
3695.7273,5.678657150899724,48.194465744805186
3696.5793,5.682785864940312,37.49785347762998
3697.43,5.70022478306006,38.90913167596863
3698.2825,5.72587593107836,37.57865836322703
3699.1333,5.7514127885947905,34.99334051714793
3699.9841,5.769263133216283,48.96117304547455
3700.8374,5.775077129735841,42.724798098259384
3701.6887,5.768416788122841,36.767956606468054
3702.5425,5.752028359949338,40.03339528428861
3703.3943,5.730536309078197,38.724202690794236
3704.2483,5.708716284549216,39.50726448532755
3705.1003,5.690729023465381,39.455004957361474
3705.9526,5.679013645235116,41.012766395714884
3706.8074,5.6741177857917675,38.67721363348488
3707.66,5.674769715074444,45.802145667365615
3708.515,5.6784411924425084,56.068632196842664
3709.3682,5.681994500398583,42.65244306534068
3710.2234,5.681882433124157,44.74460560898221
3711.0771,5.67421694672152,40.406682140741324
3711.9307,5.655726999566108,44.77908949022207
3712.7866,5.625487506295013,36.03362123799456
3713.6409,5.586778424869357,40.21129273925198
3714.4973,5.546134156182004,36.52132963371735
3715.3518,5.511353510537806,39.631584348426095
3716.2085,5.487483930261008,46.85996211078345
3717.0635,5.475781288217513,37.4809162624569
3717.9185,5.474488868902475,47.680774224839965
3718.776,5.481965202684186,40.21749953121023
3719.6313,5.497995298343424,45.96629342850594
3720.489,5.522400376369821,45.97569481701658
3721.345,5.551957504327827,38.259039500754994
3722.2031,5.580243842117389,40.66674359538439
3723.0593,5.599990868428477,40.616073227327746
3723.9158,5.607411097927072,46.30267676817209
3724.7747,5.603484519383596,45.95941295582904
3725.6316,5.592550291398851,49.58200206461482
3726.4905,5.579207121260367,37.58970728179578
3727.348,5.56629082106565,37.207339128590384
3728.2073,5.554216822738372,45.52345698315456
3729.065,5.542021828674276,43.4678751328359
3729.9229,5.5286358902936135,41.86939909762949
3730.783,5.514130000736912,43.58855386783591
3731.6414,5.49958763023528,50.22995926217925
3732.5017,5.484442058703972,38.43063251087995
3733.3604,5.462024673858797,46.304018161920816
3734.2214,5.412707741100243,40.991215495456075
3735.0803,5.2993246881506995,49.21895917288317
3735.9417,5.071134433994971,42.549561397086585
3736.8013,4.695801945956748,40.64985599331695
3737.661,4.205847643974522,53.052419399104195
3738.5227,3.7286665681545905,45.608696951321335
3739.3828,3.448465629374333,40.15593256493323
3740.245,3.4897149346197986,43.997939422173246
3741.1055,3.830355906168378,49.74930201967198
3741.9683,4.319070884525891,46.408806542350504
3742.829,4.77616039227808,42.03299144612498
3743.69,5.098652943848781,41.16928016811773
3744.5532,5.275784348203172,43.47660022864878
3745.4148,5.3481733206058575,44.71804784294128
3746.2786,5.364240013465066,48.264113311785344
3747.1404,5.356063722810234,45.95409439432377
3748.0044,5.339107867891353,49.567436509749704
3748.8667,5.319219015119819,43.16774925231518
3749.729,5.299067593676275,48.41261007403193
3750.5938,5.281822356446034,44.746110435291484
3751.4565,5.271795667721826,54.19935861877725
3752.3215,5.2726220057488735,49.98423697953174
3753.1848,5.285405697503781,46.126026049597144
3754.0503,5.307661662737189,49.29596336648048
3754.9138,5.333577942798477,37.82828847813615
3755.7776,5.356124477484688,50.71606302258198
3756.6438,5.369361491173577,36.040088644368986
3757.508,5.370807021621462,36.73201655375453
3758.3745,5.362812631344842,49.25763296590307
3759.239,5.351495787912457,50.16911456084639
3760.106,5.3437302324213976,47.931833699994066
3760.971,5.344038902957283,51.86293857625924
3761.8362,5.352506807470728,48.601252632559124
3762.7036,5.365146967941441,42.04124274242646
3763.5693,5.375828864295913,42.33100725991776
3764.437,5.379128915508363,55.861119993823024
3765.3032,5.372047902724114,42.89884415821865
3766.1714,5.354554832564918,50.720708734050916
3767.0378,5.329156000405314,45.393055175662326
3767.9043,5.299485387979598,40.43677880258526
3768.7732,5.269124325580311,51.608269485004605
3769.6401,5.241428044043202,49.82477512145202
3770.5095,5.219339293446512,49.881795123116824
3771.377,5.206046581029324,41.6239618364733
3772.2466,5.203588439142389,62.98303982486354
3773.1145,5.211681224698915,51.464185857362246
3773.9824,5.227411991823012,50.50855769385876
3774.8528,5.246867910892342,54.653081598478394
3775.721,5.266669477092111,55.62665273957362
3776.5918,5.284744650219679,38.39625076183301
3777.4604,5.299336575277645,43.632403730794145
3778.3315,5.309465925284967,48.45242445706285
3779.201,5.3156134146864895,47.90914100170198
3780.0703,5.320151583443773,50.381888766694026
3780.942,5.325709016771939,43.07901551231508
3781.8118,5.3331123934784666,50.35756007595036
3782.6838,5.340859745137389,50.212234728383976
3783.554,5.345989058310629,46.32232101599419
3784.4265,5.345612493659833,50.808554778641856
3785.297,5.3379896265875075,45.10569487644738
3786.168,5.323391366955485,44.078664456242784
3787.041,5.304315548344855,49.819821651275866
3787.912,5.284907138638144,43.256129290490776
3788.7856,5.2689407276504685,48.98489230556896
3789.6572,5.258362788967751,43.76241055336714
3790.531,5.251909539225735,52.857108419334565
3791.403,5.245569040600667,47.36004815704448
3792.2754,5.234203169793579,50.18953332771788
3793.15,5.214029907616706,50.52197851722848
3794.0225,5.184314539107682,47.560065305002716
3794.8972,5.146367548894347,56.424945388432654
3795.7703,5.102376364178853,49.3337830986369
3796.6455,5.054314140719312,47.99577311333001
3797.519,5.006394273034789,64.77861077120876
3798.3926,4.965991402605983,50.948457697087065
3799.2686,4.942608025104706,63.075027116381804
3800.1426,4.943239883769644,51.56766840399238
3801.0188,4.967176972387011,59.26098741626417
3801.8933,5.005339051437009,49.89880208671235
3802.77,5.045374824578947,48.91734480399686
3803.6448,5.078001408835433,49.62824788894173
3804.522,5.101477493784545,53.94476576484868
3805.3972,5.119363058734737,54.190087101560245
3806.2727,5.136328316922878,52.84359843656923
3807.1504,5.154327382249816,59.67689450756819
3808.0261,5.171713243454676,53.260664491055174
3808.9043,5.184813519936671,47.05834900707237
3809.7805,5.189801112112249,47.415502046309804
3810.659,5.185249000908744,43.21390953684323
3811.5356,5.173574127849975,52.496924054456166
3812.4126,5.160588845236896,52.463904049806914
3813.2917,5.15297989947311,56.73027216126489
3814.169,5.155021140768142,59.32775981008277
3815.0483,5.166332663826311,52.34054623903938
3815.926,5.1821995673670775,47.236703513290536
3816.806,5.196341449305242,48.393605576075245
3817.684,5.203821358570244,50.715568105799214
3818.5623,5.20289506728921,47.35448687075523
3819.4429,5.194425497121844,46.18765141914425
3820.3215,5.180660901937441,45.90909343277518
3821.2024,5.164038067144631,49.762839473901735
3822.0815,5.146922272799958,51.428798729192586
3822.963,5.130825486811973,48.73016295713508
3823.8423,5.1158418572828905,57.05451063414168
3824.722,5.0996873715763265,52.11713924964469
3825.604,5.078298328925705,52.68616568117829
3826.4841,5.048072349243698,49.92172172052457
3827.3665,5.00783736074216,51.576396061018045
3828.2468,4.960151460091834,55.341969185478895
3829.1296,4.90896251127901,56.09552113315306
3830.0105,4.857961522840726,54.74710572350594
3830.8916,4.808122426854519,57.19267752547902
3831.7751,4.758257148369447,59.254181664747584
3832.6565,4.706962852715483,66.837056733482
3833.5403,4.653979479025762,72.42154568310963
3834.4224,4.603270278223372,64.24208387746447
3835.3064,4.5622398768226216,72.54773713221091
3836.1887,4.539570949435712,58.60301393280675
3837.0713,4.539787007078033,63.27601795937089
3837.956,4.560904671138842,54.296614885147434
3838.839,4.596014754035491,62.82489392626442
3839.7244,4.63854246270197,57.63818008008446
3840.6077,4.684885069765149,70.34069556014748
3841.4932,4.734346340034188,60.68577239324852
3842.377,4.785490600291989,63.749136629964134
3843.261,4.835567768078832,62.96453038548474
3844.1472,4.881301357540301,60.50946342728244
3845.0315,4.920443206309413,56.48647966682597
3845.9182,4.953181523213469,52.00434101683394
3846.803,4.98071502673723,47.59390764730025
3847.69,5.00492311751124,51.522522369009096
3848.5752,5.027220145199698,53.824717524987655
3849.4604,5.048658258378998,58.75323502338614
3850.3481,5.069713795882989,56.64773705930819
3851.234,5.090454720665082,54.87409629412795
3852.122,5.111404029562311,52.404487807183486
3853.0083,5.133040808478438,49.744275493613415
3853.8967,5.155446822957518,54.87690901401484
3854.7832,5.177399053725793,53.73390645926172
3855.6702,5.19725051319074,47.91201456796416
3856.559,5.213640153636648,51.78253490534535
3857.4463,5.225677642566405,42.95511875061189
3858.336,5.232662022740776,47.30898516541694
3859.2234,5.233648437785899,42.82231273243178
3860.1135,5.2280911780819395,48.7340128546094
3861.0015,5.216501712364789,46.88370917277303
3861.8896,5.2005811400597866,49.179328016096534
3862.7803,5.183108966418257,49.025027999729105
3863.6687,5.167862526558062,50.38450474852679
3864.5598,5.158353795327109,52.97557570554984
3865.4487,5.156218523142111,47.07007679760317
3866.34,5.159532660997533,50.59918714425186
3867.2297,5.163594321634148,46.44595443271707
3868.1213,5.163604229674106,48.423948851351525
3869.0112,5.156814423497421,61.445149847438145
3869.9014,5.142401850145728,58.36174247208242
3870.7937,5.1200158511453955,51.50508851532756
3871.684,5.089705342869236,48.93583962331718
3872.577,5.052637640943123,53.63247800109988
3873.4678,5.0122301481615334,56.99949898132061
3874.361,4.971941301537383,50.89470255520888
3875.2524,4.933584152522004,63.80653166427894
3876.1438,4.895585952670543,60.830912423253174
3877.0376,4.854392445417612,57.05205817785978
3877.9297,4.807035783665633,54.55196359171474
3878.8237,4.752260489852778,60.085011501126985
3879.716,4.69177622274243,64.5256632996138
3880.6108,4.628207989154496,61.547759525808715
3881.5037,4.564034453060948,64.34651303832436
3882.3965,4.4987478571378645,69.07760810587628
3883.2917,4.429181451966337,61.467768007519034
3884.185,4.351908538945307,64.40060558477875
3885.0808,4.264321985176756,77.78488726015243
3885.9746,4.167564355920741,75.45588347596127
3886.8706,4.065150443168582,86.11655455929183
3887.765,3.964886196164204,93.0609440923125
3888.6592,3.87752651946603,100.18370912813621
3889.556,3.816190047929228,94.07230828630044
3890.4507,3.792686523270698,104.46573667186371
3891.348,3.8113354753935127,93.63141211273275
3892.243,3.86687731630325,85.41367992598562
3893.1406,3.947615510191111,92.0110743147409
3894.0361,4.040184497469361,85.72511774481104
3894.932,4.135435392488449,74.81151952541872
3895.83,4.2287144775258545,79.75417606594469
3896.7263,4.317571421123003,72.38422326946046
3897.625,4.401525017548451,68.44710955820436
3898.5215,4.479463924159077,73.16639741680032
3899.4207,4.551308537523284,57.560754281689775
3900.3176,4.6163434907928735,58.734219017308135
3901.2148,4.674357889007675,69.67203607153903
3902.1145,4.7249348041799255,52.26869194751759
3903.0122,4.767982548833116,59.150465878051
3903.912,4.805675267462282,54.297131975564696
3904.8103,4.841589046266671,61.28075590312535
3905.7107,4.87946909566499,55.32510480230944
3906.6094,4.920009265948065,54.212513772822916
3907.508,4.960562074639731,58.37800796498674
3908.409,4.996921811130864,50.072852709076145
3909.308,5.026531788678243,52.60732409479851
3910.2097,5.051026971022715,56.67521165685597
3911.1091,5.074324776132725,58.736444306120305
3912.011,5.0996316067499,50.12704311363714
3912.9111,5.126516195792253,51.00442497076501
3913.8113,5.15210109482783,45.12974205436535
3914.7136,5.173841212915487,45.707003095563834
3915.6143,5.191529593051666,55.50283482003628
3916.517,5.207282286653262,54.54909444476131
3917.4182,5.223294180364201,48.0304905838677
3918.3215,5.240633766587644,51.100763897845596
3919.223,5.258733320490755,60.305068882784184
3920.1245,5.276253040677021,48.669546260425605
3921.0286,5.291756081045534,45.033246623202736
3921.9307,5.3043316865858054,49.2131175389261
3922.835,5.314039218280214,44.343952970076145
3923.7373,5.321013706908059,43.55706224759091
3924.642,5.324760565207032,46.39712684862156
3925.5452,5.324098238043589,51.66984570204943
3926.448,5.3185558322870365,49.490661992723794
3927.3535,5.30984693656276,55.871887826254046
3928.257,5.302674290068201,46.176632991598915
3929.1628,5.30397748197397,45.150885539603756
3930.0667,5.320662242449564,40.729717590968285
3930.9731,5.355160176964825,46.817619888843296
3931.8774,5.3997114840583444,47.90573966533281
3932.782,5.436045895554017,46.24072766451784
3933.6887,5.44329358763831,44.524779263132196
3934.5938,5.411872483032851,42.67489501809284
3935.501,5.35086491874949,59.64990136263202
3936.4062,5.281737959658933,50.65070223849246
3937.3142,5.222943865642575,45.43620118418057
3938.22,5.182141218169602,48.03103151076388
3939.128,5.156656853602726,50.18108058828172
3940.0342,5.14081833395815,48.78972036942613
3940.9407,5.1297600542802115,51.382544032187326
