wavl,flux,ivar
3566.9744,4.076939267644944,27.376325889008953
3567.795,4.038732615372652,43.46736338847994
3568.6177,3.996203711139239,25.429906343262743
3569.4385,3.9597585418904973,21.940940611688802
3570.2617,3.937426963357302,40.12660766945923
3571.083,3.9340675517306454,27.825770828633626
3571.9065,3.948823490254936,33.572982836016806
3572.7283,3.974004545015924,28.16669975073395
3573.55,3.9974170503216717,25.105632717043246
3574.374,4.007949471297968,39.0132927794764
3575.1963,4.001289805680472,27.8283924360516
3576.0208,3.9817269963731463,34.337295066084685
3576.8435,3.9584840720552457,47.37262914266567
3577.6682,3.9392162752307818,24.438792820382922
3578.4915,3.9263776778981856,28.791643728003425
3579.3145,3.9175805407177524,32.60525360232507
3580.14,3.9096018584673904,32.21187243177923
3580.9636,3.9022708656486587,28.088241847846312
3581.7893,3.8993210330712875,30.97862533719227
3582.6133,3.9056903351308216,21.68452304260007
3583.4395,3.922951359808742,33.814243065828514
3584.264,3.9467598092049165,31.65332980722661
3585.0884,3.969078594463753,24.626347364017768
3585.915,3.982562486469369,28.99146235942946
3586.74,3.9837359356830713,32.8464459686626
3587.5671,3.9737334794621764,28.254016789775402
3588.3923,3.957172304760837,31.6809820106944
3589.22,3.940189645045774,28.598677221006533
3590.0457,3.928183731955172,36.884714031006254
3590.8716,3.9228786527026687,28.744809838314612
3591.6995,3.9215233612166935,34.54160420258951
3592.526,3.9184301852943038,40.60790777883609
3593.3542,3.90813214491874,28.43566802941487
3594.181,3.8883761256130818,33.81431761916676
3595.0098,3.8610686066939417,49.67347811177468
3595.8367,3.831644428267857,30.919062772088015
3596.6638,3.8061156104308465,30.06969384270691
3597.4934,3.7887658205628947,26.42125124867226
3598.3208,3.7809265288347444,41.23312764598414
3599.1506,3.7805562604402043,36.821737882670675
3599.9788,3.782719613536909,48.75307788669968
3600.8088,3.780556117222639,26.327339840135206
3601.6372,3.7683973011925467,27.139682607440395
3602.4678,3.746011925988796,41.75536389736847
3603.2964,3.720700790834988,30.98969216410414
3604.1252,3.7035865999610835,35.32503769432013
3604.9565,3.7033520112556935,31.527711022827717
3605.786,3.7213166038719123,29.209135486042868
3606.6172,3.7512008956289256,36.33053880452046
3607.447,3.78248274995134,32.32487158491244
3608.2788,3.805922132821022,26.719837064656094
3609.109,3.8173469355982683,30.052903295141586
3609.9392,3.819222080867655,33.83068082530223
3610.7717,3.8178859696719107,28.29757138890503
3611.6023,3.8191170242024635,42.69423023299968
3612.435,3.8246712285802342,29.411515668265476
3613.266,3.831981032007059,41.48802794812307
3614.0994,3.836791529533925,38.02486426076804
3614.9307,3.8363261019496018,33.520278279064144
3615.7625,3.8311314615325447,36.82338085059049
3616.5962,3.8243225920056427,33.53459398163761
3617.4282,3.819179838335019,33.90098782789183
3618.2625,3.816566291863601,27.892505854178165
3619.0947,3.8144158001747304,49.29336390885171
3619.9292,3.8094791812864326,33.062503596140374
3620.762,3.8000110967155916,39.44841337742217
3621.595,3.786579121617698,30.55526682717883
3622.4302,3.770492924966383,34.95909540842208
3623.2634,3.752041983386687,38.588982707262076
3624.0989,3.7303142307117962,26.666853036123765
3624.9326,3.7053774077288812,41.45417429453855
3625.7686,3.6789892041193735,39.47030824184252
3626.6028,3.6542446179732484,26.13093108850472
3627.437,3.633527241775969,31.66583948669016
3628.2734,3.6177993178913708,60.73741772311686
3629.1082,3.606887467788314,27.777747447450164
3629.945,3.60015097516954,39.09366832450712
3630.78,3.5977528753908876,27.486645444950618
3631.6174,3.600858657289727,32.9154093692873
3632.453,3.610553204369175,43.66122778687242
3633.2883,3.6260032708487664,58.656137977229854
3634.1262,3.6437476611273363,33.8047109067093
3634.9622,3.658792672699826,28.886473270821163
3635.8005,3.667270857606929,42.19259709383806
3636.637,3.667849730091089,46.855766982923946
3637.4756,3.662088832514348,33.06994646570077
3638.3123,3.6532623340673496,39.836584205208545
3639.1492,3.644434016715951,29.37834991578282
3639.9885,3.6369258758093626,45.0312550558299
3640.826,3.6301834011933938,38.88850589804171
3641.6653,3.62287328362289,34.33619934373644
3642.5032,3.6144680010307164,37.371982385008664
3643.343,3.6055966935962522,61.70796335173658
3644.1812,3.597658218167482,37.191900364060054
3645.0195,3.591845436275298,35.750100622761224
3645.86,3.5885978440335093,28.431957602451153
3646.699,3.5874265630505655,52.37658716676494
3647.5398,3.5871454209419684,37.22282989394901
3648.379,3.586374689646083,41.915850680422096
3649.2202,3.5839455743807083,45.992829659245835
3650.0596,3.5793840029750656,31.223330907676523
3650.8994,3.573308410275393,44.490683777314786
3651.7412,3.567269084650777,45.677636626732756
3652.5813,3.5626011256218635,45.61265376095425
3653.4236,3.5589465663839643,35.072132066086
3654.2642,3.5541895537204704,27.845621874440695
3655.1067,3.545745513073707,43.73508668011713
3655.9475,3.532328015433661,38.28934820725278
3656.7886,3.5146227555922076,56.596146320615254
3657.6318,3.495277007214502,31.655369491322016
3658.4734,3.47849902940052,37.41381200539777
3659.317,3.4683263738554477,41.67412644618296
3660.1587,3.466708062233471,30.01797231587179
3661.003,3.4720818194432446,32.08348544831402
3661.845,3.4806375754401713,37.12283525157852
3662.6875,3.4894021438402425,53.29821687131472
3663.532,3.498272983320819,39.10233799075223
3664.3748,3.5091707284204627,26.647375598962007
3665.2197,3.5231565679792127,46.22085661264972
3666.063,3.537623817097756,46.29456493430306
3666.9084,3.5470378070250503,36.93981892223072
3667.752,3.546587482751061,40.271363677579494
3668.5977,3.536288484437281,42.56963605475915
3669.4417,3.5211131951370134,47.619965304083976
3670.286,3.507000192153346,48.54745848372003
3671.132,3.4969933142397567,40.06345501145881
3671.9768,3.490681401639636,35.46267945653181
3672.8235,3.4861027785253462,53.75537909917564
3673.6685,3.4816436126612555,28.09143922765986
3674.5156,3.476037741788563,34.08111394708484
3675.3608,3.4680032229484503,37.39147003327616
3676.2063,3.456755813711481,53.923968758619196
3677.0542,3.4435456598048275,35.23409479224337
3677.9,3.432381717161717,48.10489780476371
3678.748,3.4281795065516407,41.80404922696309
3679.5945,3.434025343248796,48.17323591774163
3680.4429,3.448801570982842,47.007298771622935
3681.2896,3.4667107670476347,48.72490919241965
3682.1365,3.479507926904975,36.312524681099234
3682.9856,3.4806845476391985,37.44537993855234
3683.8328,3.470101100380557,49.1732303465856
3684.6824,3.455696510426131,37.81521863935595
3685.53,3.452018841367667,56.62533804893908
3686.38,3.478267840526676,30.36518674519274
3687.2278,3.5572902870947463,41.31187463060898
3688.0762,3.709854573129919,59.40522548553637
3688.9265,3.936600367162107,41.60983202280916
3689.7751,4.193548807105856,32.94204277609677
3690.626,4.396022692706833,34.115382854158696
3691.475,4.456488571811798,0.8886897496944501
3692.3264,4.345889710470332,70.64263079549355
3693.1758,4.115466369590435,36.84568821117119
3694.0254,3.859236371396454,36.54911529945193
3694.8772,3.654940594496773,40.812814367616696
3695.7273,3.532886628180962,53.60774389576677
3696.5793,3.4807083940697128,58.62413865702047
3697.43,3.471229839599096,47.00093017395556
3698.2825,3.4802224138550106,36.32399785599139
3699.1333,3.4924825925343566,31.49245573503102
3699.9841,3.49992397882013,41.58520943928176
3700.8374,3.4985584297558225,33.03573531737351
3701.6887,3.487379769137543,40.954468425924546
3702.5425,3.4683498424977417,42.053532148921256
3703.3943,3.4461233686568,48.36854085088845
3704.2483,3.4258661071160277,87.08209116053614
3705.1003,3.4112360764046428,46.51423424540725
3705.9526,3.402526434325798,37.67255813692962
3706.8074,3.397084285719031,36.578338731528774
3707.66,3.3910507945865396,30.1679962889272
3708.515,3.3816101233896863,34.26154060786409
3709.3682,3.3687921782571446,68.96824775107237
3710.2234,3.3551620522771217,40.577609669213246
3711.0771,3.3439628317208108,53.65288932880206
3711.9307,3.336247971284774,37.155048527346494
3712.7866,3.329874580299301,51.19985188129593
3713.6409,3.321324515050252,44.128872011067656
3714.4973,3.308829505913571,65.93020779773798
3715.3518,3.294145204364897,58.77560704192503
3716.2085,3.2807739185586517,48.29539339827295
3717.0635,3.271374835702386,50.86372174054658
3717.9185,3.2662959557260427,49.019166835334474
3718.776,3.2645562832253,43.841991473279
3719.6313,3.2650019863188264,40.065875407630216
3720.489,3.2665492526350897,42.02489554127775
3721.345,3.2683091358227063,51.182479115923556
3722.2031,3.270470125720319,37.88220742870723
3723.0593,3.2749514592092055,44.8428479565585
3723.9158,3.284394448508556,45.70411710597585
3724.7747,3.2997856696077865,43.56163360425132
3725.6316,3.3187824822102012,49.96354086169935
3726.4905,3.3368745019561,55.90914064135215
3727.348,3.349326718630026,61.841441287999416
3728.2073,3.353059473988677,36.571192165343646
3729.065,3.347078770659409,32.97225466310766
3729.9229,3.3329460741928876,38.333322562377475
3730.783,3.3148869567626176,42.554659292280704
3731.6414,3.2989057810128495,45.63922210870005
3732.5017,3.289840077569332,37.76198689608152
3733.3604,3.2890067906184153,51.86388406996592
3734.2214,3.2937687218185125,39.905244902600934
3735.0803,3.2999255576952873,45.103481247662266
3735.9417,3.3047413796820466,47.379501678726314
3736.8013,3.307895902805857,44.960222874355736
3737.661,3.3102715219984686,57.70803292325773
3738.5227,3.3121635523281796,42.693186731897114
3739.3828,3.3129951942333924,38.61426196457491
3740.245,3.3123989161423455,31.368562083006594
3741.1055,3.3108941335953994,43.41885560873616
3741.9683,3.309080917797794,41.57435387769257
3742.829,3.306172465308639,41.815512150458716
3743.69,3.299638124294391,39.19648242337189
3744.5532,3.2868387010801543,41.207380566849636
3745.4148,3.267569719064739,47.7753181611196
3746.2786,3.244818228430587,40.1327880395441
3747.1404,3.2237570633455777,53.21103012056131
3748.0044,3.2087207683902723,47.26176473409992
3748.8667,3.201319864966193,52.79321076295549
3749.729,3.199525675913774,48.3703660918826
3750.5938,3.1992744036382175,41.45295478674485
3751.4565,3.197482639206276,53.1838501198281
3752.3215,3.194754777892587,35.498796923252044
3753.1848,3.195189234407637,50.74657060466068
3754.0503,3.202615134677222,49.219318390253406
3754.9138,3.2162404670908478,43.64632826043787
3755.7776,3.2301760023911816,46.86146113540894
3756.6438,3.237542078170094,50.46102237410418
3757.508,3.235733849149257,42.572280533139
3758.3745,3.2282845767723343,40.80016714121179
3759.239,3.22176422858216,43.827981175050915
3760.106,3.220660394312753,48.24269895183411
3760.971,3.2245447552461988,55.7526978744732
3761.8362,3.229100240080332,45.77580288929778
3762.7036,3.229719240292827,51.361381113401286
3763.5693,3.2244054640059527,45.227537831130824
3764.437,3.2139490492433533,66.49230872359456
3765.3032,3.200276625581584,40.95189889788332
3766.1714,3.1849605632586004,51.85406246089637
3767.0378,3.1693919185477033,58.110101706506086
3767.9043,3.154858159638817,69.57839394684021
3768.7732,3.1424336655477187,65.17117412210187
3769.6401,3.132829881779003,44.49220392970297
3770.5095,3.1263389939842177,67.3620952193144
3771.377,3.1231364400356476,50.75181244351611
3772.2466,3.1228024842022224,46.751582831166246
3773.1145,3.124049693803885,57.4843644128071
3773.9824,3.1250684220724274,59.430060290965535
3774.8528,3.1245435455651163,52.852096397557546
3775.721,3.1224645039847942,71.20175517671933
3776.5918,3.1198485466680927,60.62432308891393
3777.4604,3.1175274613898907,53.234575015107055
3778.3315,3.1150783441775647,70.05135910990722
3779.201,3.11128126827106,50.31127188285344
3780.0703,3.1055636039703742,54.02172086622735
3780.942,3.0989125316127613,48.78178694779341
3781.8118,3.093327453870911,43.53183437208147
3782.6838,3.090396963618982,59.20679290359014
3783.554,3.09062203309425,43.65342571928219
3784.4265,3.0934061792868803,49.8780949917832
3785.297,3.0974476074317985,49.633365408058985
3786.168,3.1014091909464256,36.008313366612846
3787.041,3.1046472677126116,48.40647177994502
3787.912,3.1073324583180333,62.694914708349934
3788.7856,3.109670320910122,46.16300620260117
3789.6572,3.110984189234948,52.966478036361515
3790.531,3.1100415998473028,55.29608644150323
3791.403,3.1061404456501203,64.36917532998804
3792.2754,3.0995299458766388,49.12622905568218
3793.15,3.0905671233463035,46.36479772853921
3794.0225,3.078917527581575,53.774940501307164
3794.8972,3.063844694566095,46.68179003414794
3795.7703,3.0460043468065847,43.44726731095071
3796.6455,3.0280883074406812,55.76783798348958
3797.519,3.014045867807905,51.22838231486635
3798.3926,3.00655101542964,45.8932183801045
3799.2686,3.0057924202089477,44.811739154300945
3800.1426,3.009926538214464,49.695666831190174
3801.0188,3.016462174831455,51.74543582438259
3801.8933,3.023046798329789,63.067930249952376
3802.77,3.027745043548723,45.83897887087816
3803.6448,3.0293401997143734,36.75938773045783
3804.522,3.0281598998386143,46.382815827227205
3805.3972,3.026211489912569,43.860008354431415
3806.2727,3.02616486768251,44.877305744814535
3807.1504,3.029884959800978,44.263493683040124
3808.0261,3.0376351865257156,63.61422539953367
3808.9043,3.0486282589652505,49.32389849571048
3809.7805,3.061881756392296,63.06513991999419
3810.659,3.076843614417193,70.37997873486884
3811.5356,3.09259227940234,56.50917652922061
3812.4126,3.1073446815259076,64.19184699858788
3813.2917,3.118558678740719,44.10529206105947
3814.169,3.1240183602424194,54.3985485940339
3815.0483,3.122978069782577,45.38325235373402
3815.926,3.1161335667579584,49.01224027661008
3816.806,3.1051486213457413,55.06997318144538
3817.684,3.09239198384448,47.93506534362537
3818.5623,3.0803625095099996,67.75543825261596
3819.4429,3.0708959619642653,53.591658706250755
3820.3215,3.0643665603260706,46.87012225581524
3821.2024,3.0594240822695573,54.97664617362536
3822.0815,3.0539466480780635,51.21960602047034
3822.963,3.046133028606601,52.16584050953571
3823.8423,3.035607728775981,67.76418703737333
3824.722,3.0235537901130582,50.39920610816775
3825.604,3.0119796764345264,55.51218269919717
3826.4841,3.0023118912569253,61.952738657498244
3827.3665,2.9939409380339597,60.793568036946326
3828.2468,2.984369396472384,59.6832770383776
3829.1296,2.9702809754888486,64.02788608970504
3830.0105,2.949424638805419,57.30901454428085
3830.8916,2.9214880011289956,57.88276206950436
3831.7751,2.8884286339338274,65.74130993649933
3832.6565,2.8544752810191545,67.19129906322215
3833.5403,2.8245062548464848,63.872476406901775
3834.4224,2.8028848826650323,58.55586535154003
3835.3064,2.7909842870622255,61.495518211675254
3836.1887,2.7868163728183504,67.30365601539364
3837.0713,2.786160546353921,59.73079029356392
3837.956,2.785482223970158,70.461725354128
3838.839,2.7843208129261097,66.70398271922048
3839.7244,2.785630974418756,61.169454040303435
3840.6077,2.793853726490385,78.20827493539069
3841.4932,2.81224218858081,66.14417511327794
3842.377,2.840980091872834,62.33325359288629
3843.261,2.877603623174323,61.49411482209118
3844.1472,2.9182669006079447,60.33617263555561
3845.0315,2.9585124797232,52.67427622321721
3845.9182,2.994568040139582,46.18452651283605
3846.803,3.023471455861268,54.99643067218728
3847.69,3.044933497071077,60.23339353852088
3848.5752,3.0610136792367872,47.800985788093136
3849.4604,3.0748912361949574,56.688759862293814
3850.3481,3.088374314269554,41.56421242522132
3851.234,3.100812372878439,49.97449688388083
3852.122,3.110388767077353,50.733956814451965
3853.0083,3.1157110166143442,51.15309306631598
3853.8967,3.1168086399766155,46.27310258200943
3854.7832,3.1145234426558277,47.45605175288777
3855.6702,3.109782404233196,51.191093297488
3856.559,3.1035260700503353,45.339942269188306
3857.4463,3.0972630536172647,45.71672100960543
3858.336,3.0931278850224824,47.74568753714556
3859.2234,3.0933739903609028,47.44883792906443
3860.1135,3.0994575654012912,49.1426551313197
3861.0015,3.1114348776647023,49.38444832490505
3861.8896,3.1276997081180293,56.087715393204036
3862.7803,3.144749504000439,60.23297710712915
3863.6687,3.157500987243768,51.227674930096484
3864.5598,3.1612740753656725,44.27128878145366
3865.4487,3.1536617834984546,50.934627506248454
3866.34,3.135447266775535,60.4198513510257
3867.2297,3.1098946985737883,38.82190484462407
3868.1213,3.080940344245058,46.86634448190197
3869.0112,3.0522020779149397,62.55934273139692
3869.9014,3.0255088055069055,51.56340853376454
3870.7937,3.000717856459292,56.83212636030781
3871.684,2.9767322561993717,52.34126290235887
3872.577,2.9526053208730563,67.19008303044987
3873.4678,2.9286303215230225,55.785219512814265
3874.361,2.905098617060374,56.42347526917021
3875.2524,2.8818127915109226,64.08835954204659
3876.1438,2.8577118807277158,61.351898480766906
3877.0376,2.8318203917757083,45.699138113487145
3877.9297,2.8041871618480716,67.31443042663462
3878.8237,2.775720843594405,71.7795387367844
3879.716,2.748323796365791,65.45252002757113
3880.6108,2.72335616427026,88.58315127607051
3881.5037,2.700683039673041,52.31530251366914
3882.3965,2.677692334013775,93.26757871142594
3883.2917,2.650584204400643,80.72327317414002
3884.185,2.61659882174467,63.28777768444681
3885.0808,2.574863549427234,69.8928112352047
3885.9746,2.527218687831838,60.035070850439155
3886.8706,2.476963849555134,68.8968590398838
3887.765,2.429147603335765,91.0686316238721
3888.6592,2.3890569716255032,104.63349544869895
3889.556,2.3614056209272003,91.36597702532339
3890.4507,2.349227313238798,85.02475708157151
3891.348,2.3527733945303795,80.92490057082493
3892.243,2.3699811434975,87.40702509539577
3893.1406,2.3974835247511495,108.2766037745813
3894.0361,2.431383096624597,79.50802745294669
3894.932,2.4685602364319617,54.28048156387533
3895.83,2.5069307334800186,104.41085122199256
3896.7263,2.545116498642804,73.54775741449289
3897.625,2.5826748442432956,67.58361004030736
3898.5215,2.618827455846422,59.397796965017825
3899.4207,2.653130826985671,61.68942498647562
3900.3176,2.685240543355438,71.30400945590391
3901.2148,2.7161937075505005,65.30876163643545
3902.1145,2.747860058249393,60.49008866156549
3903.0122,2.781375153278323,80.98950363353396
3903.912,2.816375040971775,68.58954138397881
3904.8103,2.850609518467283,48.40970395584513
3905.7107,2.8821447754893725,44.66536976894846
3906.6094,2.9100528583016243,51.2223653047292
3907.508,2.9348162598690433,51.464638970079825
3908.409,2.9575374368962555,55.885686578536216
3909.308,2.97964958565821,60.854334155796955
3910.2097,3.0030617071154397,69.85949776013815
3911.1091,3.0287370451097173,46.70530214126613
3912.011,3.056106608862417,52.79855518367395
3912.9111,3.082763552812848,52.92888750052278
3913.8113,3.1064108858806443,46.37213689201975
3914.7136,3.1259651254599534,54.82089411184067
3915.6143,3.1411633474407754,50.58833160837194
3916.517,3.151590747328997,48.38303064172058
3917.4182,3.1560997374689954,49.85179347134154
3918.3215,3.1543555955729223,51.64852306097463
3919.223,3.1482892631595676,55.842629036555714
3920.1245,3.141862739116687,50.62563586176321
3921.0286,3.139229704716134,55.70118554423573
3921.9307,3.1430668645252635,47.71888232143301
3922.835,3.1541397248960665,42.56107934333702
3923.7373,3.171564943275727,46.61115703333876
3924.642,3.1931503629753863,40.99907205010657
3925.5452,3.215132685753093,44.5817936585974
3926.448,3.233306654785397,48.09003246164899
3927.3535,3.244559319614281,50.59998901594295
3928.257,3.2481419293066867,40.54550746086088
3929.1628,3.2457094063293135,45.13379689987459
3930.0667,3.239700098313434,37.50051941578906
3930.9731,3.2316960397384964,51.47103347785634
3931.8774,3.221996739707153,45.72732412901937
3932.782,3.2101927739944522,46.702941462750076
3933.6887,3.1964162548744803,48.072307692072016
3934.5938,3.1821134659300823,44.30817453599906
3935.501,3.169370754533325,45.00003051594449
3936.4062,3.1598130983321857,43.10148294598853
3937.3142,3.153206862653739,62.68009475210029
3938.22,3.1475472445950032,53.392644753697645
