wavl,flux,ivar
3566.9744,2.777987500899837,41.99128850910468
3567.795,2.7621214400755805,56.442952249844765
3568.6177,2.7432845263761574,53.108518417114546
3569.4385,2.726429585320262,33.86491748473105
3570.2617,2.7146533741513243,44.67699219435843
3571.083,2.7095550883832757,35.00326008514285
3571.9065,2.709958814557459,56.00559555215027
3572.7283,2.7111028653887357,43.3536105320353
3573.55,2.7063915622056216,42.717808412806946
3574.374,2.6915805534997106,34.13635264102098
3575.1963,2.6682629529070288,44.50111586144392
3576.0208,2.6431069785012067,40.4524996660815
3576.8435,2.6240707862782906,87.28656112717334
3577.6682,2.6149913759473846,84.47162015925282
3578.4915,2.613650388704619,53.65045445400905
3579.3145,2.6140024607669936,61.74416041930492
3580.14,2.6115058813815257,73.7802470964109
3580.9636,2.6067619113395413,67.32792241125537
3581.7893,2.6044614393417436,56.7111453914348
3582.6133,2.609000103072256,42.53488039348182
3583.4395,2.6209112850519296,42.995493309974286
3584.264,2.637055516312556,58.938446647639
3585.0884,2.6538505895287803,39.759037615684186
3585.915,2.669337685166928,73.5168958230601
3586.74,2.6822198731211957,47.93733227951705
3587.5671,2.690420939393099,57.20148215986346
3588.3923,2.691526848335663,31.61198058704674
3589.22,2.6857420237830305,38.9688951814191
3590.0457,2.6773611554306256,50.503689164401486
3590.8716,2.6725388524185494,54.30500412171714
3591.6995,2.6751517301237095,41.064155901954386
3592.526,2.6841334809278345,39.26401765456692
3593.3542,2.694696532533719,26.677534425683913
3594.181,2.702097600752864,39.685329351640995
3595.0098,2.7049711607973084,53.397719562248646
3595.8367,2.7051144535932417,56.9058136921893
3596.6638,2.705008483263375,30.387298649035145
3597.4934,2.7058801773896897,43.053984064426835
3598.3208,2.707798772938573,36.14354457779574
3599.1506,2.710138850087344,38.81815941461407
3599.9788,2.7109413381318612,72.80868540273194
3600.8088,2.706712741216174,51.7503335366663
3601.6372,2.6943112779038656,34.725900675327445
3602.4678,2.6734194514512013,33.7797932642092
3603.2964,2.647169065051844,90.31672196008104
3604.1252,2.6196368347940884,51.62528643095139
3604.9565,2.5937576759492353,67.12984752250256
3605.786,2.5712516535089445,51.7399700626252
3606.6172,2.5533412917312552,45.75884092551611
3607.447,2.542079338544445,39.93322090024919
3608.2788,2.539508179420821,53.03853570560728
3609.109,2.545980048324881,48.96941210794995
3609.9392,2.5585811523928723,60.54633397613729
3610.7717,2.5719661052770273,42.07293850130514
3611.6023,2.581311790634538,53.380171794768515
3612.435,2.5855851576146653,34.810709269191676
3613.266,2.5876218298134313,44.571319984569485
3614.0994,2.591404837736657,56.59031967831828
3614.9307,2.598546755288962,74.4278235473732
3615.7625,2.6072043177130344,39.56913354848289
3616.5962,2.6137577664618914,53.13680095147798
3617.4282,2.615495481788111,41.13345865591311
3618.2625,2.612276754100596,54.66690582184956
3619.0947,2.606279018944697,54.93505896038481
3619.9292,2.6005181732458995,63.41433972825249
3620.762,2.597266324178105,46.030740279639105
3621.595,2.5969248360499577,62.180837588231235
3622.4302,2.598144502442338,77.86619322177519
3623.2634,2.598754999428572,61.381293057601724
3624.0989,2.5970371203692557,60.30364070886818
3624.9326,2.5927000231451363,43.86429257197519
3625.7686,2.5870324115813985,44.21649970601998
3626.6028,2.5820153136059476,84.66526618403564
3627.437,2.57860542088637,47.40916612919147
3628.2734,2.5760091136488894,59.71441901292878
3629.1082,2.573043225038597,40.25829743077732
3629.945,2.5707287106896213,71.36389959219434
3630.78,2.573315575959532,56.800410702007795
3631.6174,2.5853722916135005,88.28075420237317
3632.453,2.6065860064695805,139.59161503757937
3633.2883,2.629835911511262,49.63683803703473
3634.1262,2.645298775473951,46.427932498766395
3634.9622,2.647704605144021,46.26632415709981
3635.8005,2.640479010028287,64.35346405629424
3636.637,2.632700854320093,47.68771804633543
3637.4756,2.6323289563335326,61.42192167619412
3638.3123,2.6413562246975033,44.13743937821164
3639.1492,2.6554906599900145,34.55519948258386
3639.9885,2.667630228709196,91.12578995290552
3640.826,2.672277114621582,53.86522401599336
3641.6653,2.6686445791877085,55.18048569743031
3642.5032,2.659967547692986,49.075435707163926
3643.343,2.6499045228076623,57.08457715515415
3644.1812,2.6393666298970433,53.988363659149364
3645.0195,2.626613597898547,42.17556690349198
3645.86,2.610548205149627,45.741528922308234
3646.699,2.593274147587423,56.39974664656659
3647.5398,2.578852977732699,61.26487868730875
3648.379,2.5706225293054463,91.99127745910505
3649.2202,2.5691232926058443,63.13439872615338
3650.0596,2.572466402588042,49.4088616162545
3650.8994,2.5775173642365043,48.294787125021706
3651.7412,2.5812149194778726,45.14782976642673
3652.5813,2.5818323671809873,52.623930801497636
3653.4236,2.5800373590901584,65.6137764032026
3654.2642,2.5787335802477083,33.01350235617365
3655.1067,2.5813186030902218,60.669937631309175
3655.9475,2.5892343592255536,68.90912327076259
3656.7886,2.6005242093991208,53.2510299194466
3657.6318,2.610484093321019,43.027625576810934
3658.4734,2.61412019319594,47.797569734478415
3659.317,2.609171217587616,38.966892501755986
3660.1587,2.597367450674803,55.05638380234508
3661.003,2.5832497856631513,45.13618709697551
3661.845,2.5718038754198442,54.934001537079
3662.6875,2.5659426856563887,81.3601235524681
3663.532,2.5659045818995927,45.75414990859556
3664.3748,2.569828995319615,45.853095321104895
3665.2197,2.5749143899322817,55.19893001821435
3666.063,2.578129849220757,51.11560842674074
3666.9084,2.5767553631406455,37.61686167242007
3667.752,2.569299026663286,40.736418653663506
3668.5977,2.556772853328284,119.51615107174842
3669.4417,2.5431733776300303,48.82759764905652
3670.286,2.5336652069649586,45.180459832432376
3671.132,2.5318838762657347,104.55174341102068
3671.9768,2.537895997216835,49.14607715512425
3672.8235,2.5483508157407577,56.16750571238637
3673.6685,2.5585085774363137,39.529847883710616
3674.5156,2.5649514535260978,65.05258315260613
3675.3608,2.5669171649456386,70.64070271352529
3676.2063,2.5661353658904105,41.863841993067446
3677.0542,2.565191002905055,57.218238670695065
3677.9,2.565848499495894,40.60583420307697
3678.748,2.5681901557935367,44.734788425858945
3679.5945,2.57081074265787,77.0937458280502
3680.4429,2.571520905426885,90.55306603862519
3681.2896,2.5680007487865724,51.920326265581046
3682.1365,2.5586747573414073,56.03848865832954
3682.9856,2.543728667964597,39.229378222703794
3683.8328,2.5256782551810604,61.92842712530409
3684.6824,2.5079997495758155,55.70322390231233
3685.53,2.493521070242355,111.22434272562015
3686.38,2.4830682462239175,58.944820576304
3687.2278,2.47648347334715,59.92617297956441
3688.0762,2.4739329071434173,80.22099624805661
3688.9265,2.476692431038951,39.33603697187844
3689.7751,2.4861405028983286,49.737063902093496
3690.626,2.501932933951252,41.92163827956136
3691.475,2.520558895497026,57.875715295592954
3692.3264,2.5364205134151074,56.45315630026168
3693.1758,2.54429926904364,80.34100667374322
3694.0254,2.542129085908934,42.25930767774797
3694.8772,2.5309896434770516,62.30792784610813
3695.7273,2.513786418317807,48.7729774287329
3696.5793,2.4942370608289552,38.72403775060727
3697.43,2.477600946448119,107.21774480572944
3698.2825,2.4698143686730933,54.86360113342003
3699.1333,2.4745487141048583,103.95470351832928
3699.9841,2.48995286443955,39.10360406474197
3700.8374,2.5096476399483825,65.40437591723813
3701.6887,2.52747912543155,60.24944613298211
3702.5425,2.5429388605048717,43.32923266053062
3703.3943,2.5612854904039186,62.65398538367624
3704.2483,2.5885180829531422,41.99148916530739
3705.1003,2.6232671775780205,43.095456656718596
3705.9526,2.654033939242361,41.66767149308134
3706.8074,2.6648531990897064,64.37633371286677
3707.66,2.6469792523166307,68.19778133112594
3708.515,2.606172932238538,56.8706429836844
3709.3682,2.5587836451020824,59.496028364771924
3710.2234,2.519820450951557,48.100169919699766
3711.0771,2.495363457361007,69.83565124631185
3711.9307,2.48193729436225,87.2175005168938
3712.7866,2.472103413203556,63.97636899283637
3713.6409,2.460088058655241,39.09042966005384
3714.4973,2.444421614344346,81.98459647813695
3715.3518,2.427330449108178,64.15718029773505
3716.2085,2.4114095355299847,43.40569339305155
3717.0635,2.397861747629129,49.114120036143696
3717.9185,2.3868160119186697,79.64850925005912
3718.776,2.3789349294431745,82.44778885122025
3719.6313,2.375520100402438,71.30838908274829
3720.489,2.3773416904567766,59.88668262604986
3721.345,2.384344751657713,47.86145103969268
3722.2031,2.396184336227232,82.67641657067082
3723.0593,2.4120903101891025,46.85010281014531
3723.9158,2.430352704670998,47.13514785604905
3724.7747,2.4483998291824336,55.801352956937386
3725.6316,2.464245125822627,58.68405171537135
3726.4905,2.4780538746389333,64.61621958739659
3727.348,2.4906431880708433,90.1346898069567
3728.2073,2.50094357854118,47.02308508240109
3729.065,2.5049666297290702,40.06943344183239
3729.9229,2.4988244754367033,61.84413122385223
3730.783,2.4824698859504335,62.2634246297574
3731.6414,2.460735604864521,63.50591395204512
3732.5017,2.4400601671488023,48.08461690072803
3733.3604,2.4250763974815013,55.834516776474054
3734.2214,2.416904045662668,50.84040313097841
3735.0803,2.4144550083767378,52.10741494231034
3735.9417,2.415894966120513,71.31078041499623
3736.8013,2.4195271390024997,72.07682521911248
3737.661,2.423717614122435,50.95201569054259
3738.5227,2.4265896292338445,50.953694849977865
3739.3828,2.4259385047328075,70.83309937059019
3740.245,2.4196905802248625,57.202798499187715
3741.1055,2.4070205435501517,47.60445150387637
3741.9683,2.3895366539327476,60.337757488438825
3742.829,2.3716727680579335,56.700889460033515
3743.69,2.3583097863867652,66.15537538210009
3744.5532,2.3518148481112546,57.79574753035806
3745.4148,2.350748246373803,50.68016695069397
3746.2786,2.3515035787446643,54.1989494364116
3747.1404,2.351478767595756,49.09551354016148
3748.0044,2.35096776789709,69.79623122277235
3748.8667,2.352741918851093,73.37399458262573
3749.729,2.3599253838153507,89.81480622464778
3750.5938,2.3737019041742857,75.95540787134294
3751.4565,2.3920300254810383,51.0820451959977
3752.3215,2.4106608876076328,46.081577745534425
3753.1848,2.4248506542688935,62.48166688947954
3754.0503,2.431599672821809,59.868979481942084
3754.9138,2.430465014845371,48.712624714654076
3755.7776,2.423709967236864,59.593557270572454
3756.6438,2.4153352865471165,65.33525079891294
3757.508,2.4096939482393815,63.17795885345735
3758.3745,2.409756293894658,58.26288931961993
3759.239,2.4162047919770244,66.2700673794731
3760.106,2.4274342456422775,56.20205574436093
3760.971,2.440309941646511,64.78864774240903
3761.8362,2.4517757665945386,48.20158219914334
3762.7036,2.460076672134255,64.794287657891
3763.5693,2.464855076787145,56.304444277457016
3764.437,2.4658892453268555,63.76385984150544
3765.3032,2.461673443584973,60.504500293902204
3766.1714,2.4501641076134764,42.69011967073979
3767.0378,2.431238208108439,66.96230825532052
3767.9043,2.4076556671305176,49.44030647435386
3768.7732,2.383399145540206,71.75574878859254
3769.6401,2.3615237717333066,50.63744794539307
3770.5095,2.3432386687207534,67.94514441679722
3771.377,2.3294982247972946,102.89131835942878
3772.2466,2.3212296907828525,48.5489703559055
3773.1145,2.318777969418274,58.11188468172882
3773.9824,2.3209596241721338,84.77531650111025
3774.8528,2.3258282289932444,36.168079294959206
3775.721,2.3322775187876705,43.54702108445318
3776.5918,2.341174265468289,66.634911104072
3777.4604,2.35438907559203,75.59655865563907
3778.3315,2.372890964419198,47.02912349217575
3779.201,2.3948344731654303,49.26327396689829
3780.0703,2.4161618572732655,68.75916491633544
3780.942,2.4326678642760187,41.13327635987436
3781.8118,2.442224451395049,47.488540750806244
3782.6838,2.44561826193135,76.66285283470164
3783.554,2.4449066820205143,67.63608264501299
3784.4265,2.441576171020801,41.45883140407145
3785.297,2.435883479238333,68.56434490076974
3786.168,2.427399631328349,65.72877210029233
3787.041,2.4157253618295003,68.79963848928551
3787.912,2.4010406962628745,53.978518362702225
3788.7856,2.3843920251220707,46.402629267418156
3789.6572,2.368227965817036,45.9571130549202
3790.531,2.3551035383594976,73.79899127339645
3791.403,2.3458506887253576,59.17658087059965
3792.2754,2.3381476111792256,46.01601556863315
3793.15,2.328123741141918,68.34791478467545
3794.0225,2.313770133403166,47.919920325445226
3794.8972,2.296951309075753,56.710610209239015
3795.7703,2.2826973121648773,75.68574346097957
3796.6455,2.27574145392683,63.828495868520285
3797.519,2.277779568717362,39.86705269588305
3798.3926,2.2864698671971047,56.948978044677744
3799.2686,2.2969569474656892,71.90765757177483
3800.1426,2.304406208849865,50.11139016411706
3801.0188,2.3066705019461735,71.21541059175648
3801.8933,2.3051856663448738,61.98478052938579
3802.77,2.303967925970158,63.646731477739564
3803.6448,2.3070493373927867,40.690510427980094
3804.522,2.3161300428100615,56.32975775843898
3805.3972,2.32993675860665,45.63751942784939
3806.2727,2.345692129489959,69.89334969670072
3807.1504,2.3607767159407,77.18973649769111
3808.0261,2.3732905291963586,48.04417883119264
3808.9043,2.382080251745394,52.48495356213244
3809.7805,2.3864935812961336,47.3942563733598
3810.659,2.387096272460431,51.337028388002274
3811.5356,2.3857932301217017,71.787795411799
3812.4126,2.3848556210361918,72.26781106081393
3813.2917,2.385283016274731,58.01241844015913
3814.169,2.3862686388280743,74.05152957408588
3815.0483,2.3865047499587337,75.74076303887315
3815.926,2.385877776316699,57.840073701661375
3816.806,2.3856070929112456,56.05475580442714
3817.684,2.386686610693076,90.67104845479483
3818.5623,2.3884405907319732,48.10290800594154
3819.4429,2.388759510207105,48.413324243867166
3820.3215,2.3855445239746547,60.814955436186
3821.2024,2.377741076992342,76.84124620637824
3822.0815,2.3653987063767765,68.82643879153713
3822.963,2.349298197041995,60.92352573154254
3823.8423,2.33129544011862,71.4611544502811
3824.722,2.313950031914643,59.964748528292326
3825.604,2.2996573390768678,68.59928363782453
3826.4841,2.2894536128307474,77.56399276516115
3827.3665,2.2822510262973843,53.04851083679232
3828.2468,2.2755218310222407,75.01071006529422
3829.1296,2.266059947124119,55.02389680662929
3830.0105,2.251072169041684,67.05432841746085
3830.8916,2.228919983388106,68.98106915712819
3831.7751,2.1998525072047257,66.25159377899574
3832.6565,2.166382043549819,87.86291190101088
3833.5403,2.1318458766063766,72.63011526310439
3834.4224,2.099696365455998,79.00569373895274
3835.3064,2.07201149502098,72.1459131135461
3836.1887,2.050072610838411,52.07865940400772
3837.0713,2.0345233215076988,97.36659710000822
3837.956,2.026163265511772,73.53477459008597
3838.839,2.026172739236118,130.28882156610183
3839.7244,2.035657204949568,57.070116893406905
3840.6077,2.0544373851640017,98.74180499040547
3841.4932,2.0799294774533426,92.60887686888931
3842.377,2.1070784917767997,60.66418848453239
3843.261,2.131200100696732,54.881549188374166
3844.1472,2.1507411579938913,69.6594407654642
3845.0315,2.1678614608490676,50.52079396870926
3845.9182,2.1865194728022863,66.08704910570678
3846.803,2.2090866880624542,89.02669898193616
3847.69,2.235480637127076,72.0305028528203
3848.5752,2.2636785999600444,46.817924495552205
3849.4604,2.2916602023050476,41.323112423942085
3850.3481,2.3179778467934153,64.5912365276372
3851.234,2.341360427137649,69.81833004184102
3852.122,2.3609143166537727,38.36722492394469
3853.0083,2.3757458609928683,50.80673307599169
3853.8967,2.3854942624624877,47.1830456428952
3854.7832,2.3901511689425776,48.95161457445559
3855.6702,2.390447492654725,53.10679265286035
3856.559,2.387943987187945,48.25340302500667
3857.4463,2.3848928960098594,65.90762847223903
3858.336,2.3835463836029294,62.01291311691484
3859.2234,2.385546614747125,59.753983561705276
3860.1135,2.3915625588454077,63.81398780428246
3861.0015,2.401005500661261,66.13103928012096
3861.8896,2.412043733122622,57.322902864358795
3862.7803,2.4220391598630964,69.309697711943
3863.6687,2.4285367594659664,52.288727890424255
3864.5598,2.430343889076326,49.126282276648325
3865.4487,2.4273167178765216,57.40673612493045
3866.34,2.4194383581666545,53.895353335192524
3867.2297,2.4061614772298276,51.371435307006486
3868.1213,2.3866920958491065,62.524639320013335
3869.0112,2.361358003170004,64.67049293526911
3869.9014,2.331973558306415,56.12190079557712
3870.7937,2.3013733845308675,74.3885370506792
3871.684,2.2724107662043096,72.04250087406791
3872.577,2.2464559599149743,80.14124193541434
3873.4678,2.2236772110882788,77.24708178838337
3874.361,2.2029444382273784,55.47440506098237
3875.2524,2.1830730002649767,68.96033028887774
3876.1438,2.1632026413062055,58.84347321024817
3877.0376,2.14313901044544,73.91740969572834
3877.9297,2.1229562946648137,66.37350180214474
3878.8237,2.102038113780408,81.76611976841494
3879.716,2.079721505087051,74.24895559119344
3880.6108,2.055960279093707,49.81803514243671
3881.5037,2.0320653217105895,79.43097887925632
3882.3965,2.009311480798547,118.08171509876837
3883.2917,1.987835895733153,122.01851231482105
3884.185,1.966470286273295,99.63007907259129
3885.0808,1.9429257135114348,93.46304603814778
3885.9746,1.915146935616069,112.58165076546476
3886.8706,1.8819798401897647,106.75208517378455
3887.765,1.845028148432066,106.6672815852176
3888.6592,1.8089553432458954,109.41928174516748
3889.556,1.7807855716346968,92.1395160481494
3890.4507,1.767270969358828,119.33356670957791
3891.348,1.771090684457722,127.83562179012729
3892.243,1.7895889054756782,124.81395568381626
3893.1406,1.816575132952722,120.72917688583429
3894.0361,1.8457193705751636,105.63871136987113
3894.932,1.8739149028458109,84.61135434080106
3895.83,1.9013142030379628,87.54684983082575
3896.7263,1.9292521331849843,81.09207178326255
3897.625,1.9587560269139237,91.93180350467021
3898.5215,1.989491565961352,85.2467571026481
3899.4207,2.021144722365033,112.14238383454338
3900.3176,2.0534197380359105,72.82847524101706
3901.2148,2.0863364757597966,68.42690401118388
3902.1145,2.1192375261078116,71.29958915598515
3903.0122,2.1504688706721082,74.4433271902302
3903.912,2.1788728670100026,75.31368236443343
3904.8103,2.2044375883014298,75.36587297081222
3905.7107,2.2290707915055625,71.03645546407637
3906.6094,2.2549612031279387,76.49656736867203
3907.508,2.2831738560655297,59.23956415242316
3908.409,2.3126316085748133,54.99383816816496
3909.308,2.3405356375386708,94.83892778245077
3910.2097,2.3643537763814724,70.39200167828788
3911.1091,2.3826538938257524,52.55493054580907
3912.011,2.396037233137521,64.76631142625884
3912.9111,2.4062989782442203,54.83386155964778
3913.8113,2.4155649795673364,43.85659319603149
3914.7136,2.425020100541875,56.2318192823242
3915.6143,2.434338684039849,57.75811564249
3916.517,2.442306779406858,50.934714608720284
3917.4182,2.4478421066922746,40.73205578726531
3918.3215,2.4512383171709473,46.4887728413389
3919.223,2.454420694104696,50.72705127838981
3920.1245,2.460342256306128,70.65886299087029
3921.0286,2.4716252579564215,66.29735365450205
3921.9307,2.4891030545110087,45.80011700612202
3922.835,2.5114135686515633,63.390335504371095
3923.7373,2.53510629704733,48.70651013348754
3924.642,2.556218818431875,41.28108729798401
3925.5452,2.571225622169944,50.09206892719776
3926.448,2.578213795359769,52.573317531828515
3927.3535,2.5767922633365985,67.33420794038355
3928.257,2.56810874455591,44.92001199424227
3929.1628,2.554881802497539,53.827054276980725
3930.0667,2.5410002633271307,66.64010129561849
3930.9731,2.5296185622228764,71.56753942540688
3931.8774,2.521586429382882,52.438244710661266
3932.782,2.515010277307514,41.67526740261072
3933.6887,2.5069474003767906,45.43740523614042
3934.5938,2.495385744640114,48.12690550983499
3935.501,2.480082135071265,53.87671963325286
3936.4062,2.462656613987014,46.075358936737196
3937.3142,2.4456157665238756,41.764345909835335
3938.22,2.4315661880964026,71.66343972941812
