wavl,flux,ivar
3566.9744,20.82178402349,5.621556242396064
3567.795,20.93458828880772,6.0462600353156075
3568.6177,20.976148563220136,6.29533684289993
3569.4385,20.94804524461451,6.652539648923356
3570.2617,20.867897917538855,5.825358133164111
3571.083,20.760881871151806,6.14635200838845
3571.9065,20.6497247352251,6.574905161871965
3572.7283,20.55011788501917,6.010084982515724
3573.55,20.46678286370573,6.577906755167678
3574.374,20.397280839337768,6.081863225897384
3575.1963,20.33753115010929,6.431357673583376
3576.0208,20.28338337725353,6.549593767643
3576.8435,20.23108435562776,7.321292156228993
3577.6682,20.17531582008842,6.8703538695793
3578.4915,20.111435375330846,6.329237253023179
3579.3145,20.03637528661207,6.997247227514092
3580.14,19.948348368230604,6.011699813657333
3580.9636,19.846685408925854,6.358039479737569
3581.7893,19.731750619480042,7.355519542204514
3582.6133,19.61120892997891,6.817015975738847
3583.4395,19.501493368261933,6.974519182526614
3584.264,19.428220091627086,6.804160910535085
3585.0884,19.416395243171827,7.912282066544289
3585.915,19.48006320430613,6.720527652833758
3586.74,19.610919718328756,7.3416100624604
3587.5671,19.777267271815134,7.148031898346731
3588.3923,19.93168331263613,6.053414914443699
3589.22,20.032081277215497,7.194931842827269
3590.0457,20.055066316963952,6.344013174043137
3590.8716,20.002698204819144,7.103838092175959
3591.6995,19.89390783706074,6.7397503588374645
3592.526,19.754622858132464,6.903151928480251
3593.3542,19.608029352797224,6.793908034382427
3594.181,19.474157930774037,6.923820198829596
3595.0098,19.36741823928578,7.6371374946106645
3595.8367,19.297356745010166,7.782483643944736
3596.6638,19.263121158192252,7.196296135733687
3597.4934,19.25279097497734,6.841614694043246
3598.3208,19.246630069805533,6.703002360246024
3599.1506,19.225112293681942,7.9190404758629445
3599.9788,19.17831555792562,7.64853929224937
3600.8088,19.111315265378273,7.723669590188994
3601.6372,19.04355029581261,7.544881249980159
3602.4678,18.996578764209886,7.752669469731319
3603.2964,18.979963051953746,8.025478091714731
3604.1252,18.98563512204175,6.810149628673505
3604.9565,19.00115028240497,8.092530443071318
3605.786,19.026767374402596,7.99473559052848
3606.6172,19.078055117194406,7.86285465288959
3607.447,19.169239641703776,7.966748505838257
3608.2788,19.2966670950899,7.1064776149611895
3609.109,19.43420249345342,7.383911023983047
3609.9392,19.546193427175968,6.897413073980218
3610.7717,19.601401173653432,6.783995205824955
3611.6023,19.584005941182745,6.56408454465045
3612.435,19.499178166145022,7.121069023680075
3613.266,19.37157180757166,7.640221273470636
3614.0994,19.235000231455768,7.512132207052177
3614.9307,19.120269403306235,7.388649292012665
3615.7625,19.040264837819343,8.099644530950624
3616.5962,18.9881896109942,7.430814164813952
3617.4282,18.94565932885952,7.341426230554932
3618.2625,18.895478987585072,7.056170933517575
3619.0947,18.83181451340618,7.651811250043594
3619.9292,18.759240968960206,7.495942348341014
3620.762,18.68778235266129,7.537477469238717
3621.595,18.625467702674786,7.51863672326159
3622.4302,18.575837757559338,8.173442967377284
3623.2634,18.53804693824071,7.895256252767344
3624.0989,18.50791638585308,8.007424118325142
3624.9326,18.482089312717502,8.11854766457959
3625.7686,18.460159410435395,7.600975245863268
3626.6028,18.44426341070999,8.028789224932057
3627.437,18.434614453894937,7.782647053159311
3628.2734,18.426859734075112,7.454108899261759
3629.1082,18.413694035085676,8.006691627150868
3629.945,18.389204692958785,7.669053777329757
3630.78,18.35275177305007,8.123567539183709
3631.6174,18.308728101116035,7.779914786869963
3632.453,18.26440425615805,8.282710988150862
3633.2883,18.224933677158074,7.910773948711378
3634.1262,18.190701554596465,8.34007678913883
3634.9622,18.15797635007011,7.459877356153486
3635.8005,18.12181566726505,7.636516676954489
3636.637,18.080552424254275,8.57296851236904
3637.4756,18.035897213566205,8.371092090842916
3638.3123,17.991531705013674,8.183301153519126
3639.1492,17.94934345207199,8.869274634300211
3639.9885,17.90799414897483,9.309396140305411
3640.826,17.86346262856837,8.271898708436428
3641.6653,17.810834020334234,7.991222880175148
3642.5032,17.74915682321162,8.141570825259278
3643.343,17.68289537021775,8.9329331063535
3644.1812,17.620653881500647,8.41903856558012
3645.0195,17.56857792316156,8.63114429434527
3645.86,17.527008103999634,8.215020299655277
3646.699,17.492005561376274,7.649720607871673
3647.5398,17.459268306505756,8.769140002188344
3648.379,17.42771114911559,9.042435602765147
3649.2202,17.39779274299805,8.179348265169613
3650.0596,17.36908561118086,8.765677251663778
3650.8994,17.338407023220935,7.7466701800334805
3651.7412,17.302019066950752,7.9832088534515275
3652.5813,17.259598766742602,9.025799323959953
3653.4236,17.215871381123556,8.234600590166812
3654.2642,17.1796680977528,8.666618431577511
3655.1067,17.15853233859911,9.336553703557335
3655.9475,17.15502895870794,8.705725779339266
3656.7886,17.16549083479625,9.387913505320343
3657.6318,17.18304914313267,8.422031195430247
3658.4734,17.201333197964953,8.655061280735719
3659.317,17.216880427588322,9.220418145417915
3660.1587,17.22847675695576,8.147123178742596
3661.003,17.236437733161726,8.870275205201096
3661.845,17.242311633085006,9.28739798178694
3662.6875,17.2490736988023,8.659555732009187
3663.532,17.259758866254,8.565516294529061
3664.3748,17.275041270350712,8.700044429661608
3665.2197,17.292046337272467,9.063580701010963
3666.063,17.305576464185304,9.107813605034446
3666.9084,17.31205445971421,9.344635999746822
3667.752,17.3120042954409,8.442969973625548
3668.5977,17.309231521331228,9.446545528286686
3669.4417,17.306989272453595,9.279259005706184
3670.286,17.304597522719178,8.37507950041958
3671.132,17.297310364716584,9.05949717354464
3671.9768,17.279902141308458,8.201115414165894
3672.8235,17.25145828540777,9.372600208281005
3673.6685,17.218012717920885,9.74331319215223
3674.5156,17.189163862696603,8.716933386031183
3675.3608,17.171901343925576,9.21591236801914
3676.2063,17.164809317988777,9.369337250476335
3677.0542,17.159089478395693,8.608811952135614
3677.9,17.145170553251265,8.183268208823787
3678.748,17.119732753365167,9.042284050323927
3679.5945,17.087727047171008,10.414197923117994
3680.4429,17.05755010262443,9.558648551417653
3681.2896,17.035684613251167,9.816507285100208
3682.1365,17.023203705503875,8.718114758876574
3682.9856,17.01639511394146,9.620467470955697
3683.8328,17.009734697710314,9.556317295088206
3684.6824,17.000529419497415,9.12494906922331
3685.53,16.992513109400157,8.915369339007723
3686.38,16.993610333622275,9.269446978483767
3687.2278,17.008826472809265,9.069849562186532
3688.0762,17.034509187305936,8.821581133651039
3688.9265,17.0598697161537,9.428393248069385
3689.7751,17.07396371470775,9.249012922789921
3690.626,17.07259979229461,9.130452816051914
3691.475,17.05976637090278,8.173958939216488
3692.3264,17.044566149930525,9.998098268341042
3693.1758,17.036057027331346,9.635837397884732
3694.0254,17.03827545943223,8.951515359872586
3694.8772,17.048653940035774,9.760755599860628
3695.7273,17.05969206656813,9.458696070912087
3696.5793,17.062917730859542,9.065068936256166
3697.43,17.052212567863204,9.400989335428928
3698.2825,17.025805837277613,9.012934249088826
3699.1333,16.986569216254228,9.125538634828594
3699.9841,16.939523520109617,9.499256473726032
3700.8374,16.888640586978376,9.67896083717528
3701.6887,16.835950135486147,9.622029250165445
3702.5425,16.7822108501846,9.31269480138856
3703.3943,16.730120535029624,9.91741193814212
3704.2483,16.682997555609163,10.54992195198635
3705.1003,16.64373905843,9.627769390166904
3705.9526,16.612788587669225,9.64465654568836
3706.8074,16.588780744328385,10.15915504689621
3707.66,16.56873320937333,9.742465310730035
3708.515,16.547215097011325,9.870639548877454
3709.3682,16.51758727580595,9.969359749700084
3710.2234,16.474394239754478,9.938297780616542
3711.0771,16.417284991001818,10.281308527909564
3711.9307,16.35156723580683,10.197835306736366
3712.7866,16.285782592507097,10.069690331967465
3713.6409,16.22783235397812,11.169673030189397
3714.4973,16.18028583061995,9.626984606322617
3715.3518,16.14134138910585,10.690309492755603
3716.2085,16.10694125984465,10.20805998564248
3717.0635,16.07480603515068,10.879219848681856
3717.9185,16.04469079728428,11.07231665477098
3718.776,16.017028388888725,10.866698661859436
3719.6313,15.991133758024292,10.116225033539118
3720.489,15.964259451357496,10.263594870580448
3721.345,15.933780160268107,10.320840335326533
3722.2031,15.898962226947525,11.347021432146946
3723.0593,15.862082722071548,11.465141160233337
3723.9158,15.825915788501845,10.124342710054044
3724.7747,15.791667287661287,10.910446971538322
3725.6316,15.759043438006293,11.337698009081468
3726.4905,15.727366678586497,10.573957268838496
3727.348,15.69743834126531,10.922828420384077
3728.2073,15.670702880245093,10.62969199180066
3729.065,15.648714204882113,10.765761727933604
3729.9229,15.631756725381594,10.9022824470442
3730.783,15.617918573683289,11.165269461498774
3731.6414,15.602506385789118,11.630410050158295
3732.5017,15.579438946922416,10.585069774834771
3733.3604,15.54537191352236,11.263061004077517
3734.2214,15.502011136536833,11.530190347081442
3735.0803,15.455511260044483,10.766883179535109
3735.9417,15.411477483634092,10.821908072593148
3736.8013,15.37297596480861,10.608516155623684
3737.661,15.340343789263487,11.957782211749155
3738.5227,15.313836787043956,10.889457436620699
3739.3828,15.294783851969804,10.982035876511885
3740.245,15.283938877975382,10.674690662418827
3741.1055,15.279788005236744,11.886046931230828
3741.9683,15.277584006738866,11.642061754031333
3742.829,15.270858404253886,11.70926046110916
3743.69,15.254063758840564,11.894422283732396
3744.5532,15.2249042197456,11.153547754384581
3745.4148,15.185667913334076,11.416617757351721
3746.2786,15.142034260362008,11.804949926024763
3747.1404,15.101678997311636,11.910441049163785
3748.0044,15.07079227587964,12.107598010527244
3748.8667,15.052396259947775,11.614697127283021
3749.729,15.044653120989299,11.319547328260343
3750.5938,15.041889143972327,11.920578605793638
3751.4565,15.037281926682223,11.251530593795312
3752.3215,15.026500847883618,11.664114632051838
3753.1848,15.009995858593799,10.411081447044474
3754.0503,14.991414473995112,12.308191472812958
3754.9138,14.973950622185637,11.197898382860393
3755.7776,14.957297629932295,12.58762277849636
3756.6438,14.938793740922275,11.00564182286993
3757.508,14.916847307463316,12.990170518556747
3758.3745,14.892342017637912,13.736859787307177
3759.239,14.867653918770422,12.600367815051339
3760.106,14.843925262924987,11.760835462931318
3760.971,14.821260019210957,12.435466641706096
3761.8362,14.799822087530222,12.543723339101541
3762.7036,14.78076968682818,11.869868158760756
3763.5693,14.764966071520151,12.588396374648804
3764.437,14.750926919664792,12.151322280542345
3765.3032,14.735520218773196,11.349655205104467
3766.1714,14.716340530372973,12.738516159624991
3767.0378,14.694300988155339,12.768659447394691
3767.9043,14.67331693199888,12.923589820575724
3768.7732,14.658159115940718,12.419700474088968
3769.6401,14.651561753979612,12.040297062436013
3770.5095,14.651799682049502,12.714971696451103
3771.377,14.652971281932254,12.68061601487333
3772.2466,14.647960945000223,12.050649755926559
3773.1145,14.63282476984487,12.1339731091744
3773.9824,14.609242407672404,12.28270475877862
3774.8528,14.583186080004129,12.730082486996215
3775.721,14.561321978663509,13.57154409039394
3776.5918,14.54699846756863,12.832120943083853
3777.4604,14.539648409236328,13.056352429537514
3778.3315,14.535876820886177,12.442283500632525
3779.201,14.532068576855613,12.178611281973282
3780.0703,14.5262164891746,13.36667404432037
3780.942,14.518508066707984,13.616529488112903
3781.8118,14.510387411676053,12.94790823593961
3782.6838,14.502556387515183,12.562071690311377
3783.554,14.494050962702378,12.286988968698454
3784.4265,14.483109667063214,12.062200894169928
3785.297,14.469648921018491,12.861873529777341
3786.168,14.456148158240385,13.219145302576061
3787.041,14.446129953926484,14.447213324546876
3787.912,14.441160685651509,12.564045060214358
3788.7856,14.438701492757568,12.694771792325307
3789.6572,14.432702092234091,11.695718442888934
3790.531,14.416050733259326,13.361723338583941
3791.403,14.384071135632592,13.034982678894963
3792.2754,14.336754262576456,11.880284850218757
3793.15,14.278844587022935,13.547540875293933
3794.0225,14.217758125694829,13.647799309879536
3794.8972,14.158751579332923,13.621273608832611
3795.7703,14.103805721174421,13.47916321095355
3796.6455,14.051818116489097,13.892838682751066
3797.519,14.003104149624956,14.196231786085185
3798.3926,13.96097348646299,13.223698566209325
3799.2686,13.930932672726335,14.241948498855475
3800.1426,13.917078271228341,13.461312400937448
3801.0188,13.918712539848752,14.022955827080043
3801.8933,13.931087295290387,14.8405895900109
3802.77,13.94821713827152,14.062863828484987
3803.6448,13.964900843117354,12.876033846835034
3804.522,13.977167225004928,14.974229978014003
3805.3972,13.981802644104844,12.536881434670615
3806.2727,13.978009433811005,13.106327359950876
3807.1504,13.96925485818807,12.994946803754258
3808.0261,13.962756649398477,14.516956986258945
3808.9043,13.96500825104182,14.177704177911185
3809.7805,13.977096577371853,13.76566720557584
3810.659,13.99394557218218,13.19324770833584
3811.5356,14.007936390163835,12.61723055653819
3812.4126,14.01403660274419,14.77143238251984
3813.2917,14.011617814080974,13.539311657062651
3814.169,14.002674526821648,13.551007893214615
3815.0483,13.98851964123535,14.018369192993124
3815.926,13.968565616324899,12.958056723620633
3816.806,13.941454390670959,13.640053744584451
3817.684,13.907600024408477,14.529783026944267
3818.5623,13.869240266547173,14.13731835679133
3819.4429,13.82881232896244,13.572713346775867
3820.3215,13.78742070498666,14.128014945225107
3821.2024,13.74383854724679,14.960316436816099
3822.0815,13.696458098877297,14.799329503279122
3822.963,13.643633649603006,13.965387067750745
3823.8423,13.584959588084429,14.874736216791282
3824.722,13.520563018108364,14.939323192907418
3825.604,13.451767972562337,13.953836638900604
3826.4841,13.381827882232525,14.82716652937803
3827.3665,13.314013165147827,15.201572967285458
3828.2468,13.251280655252556,15.481452235733661
3829.1296,13.193462932971128,15.360404317696906
3830.0105,13.138364402538853,15.639640513609693
3830.8916,13.082557705846803,16.125086542905272
3831.7751,13.024577181732457,15.98882365644045
3832.6565,12.966977831056228,16.027187963257287
3833.5403,12.914418678672877,16.390941929965557
3834.4224,12.87211115891771,17.40995148243214
3835.3064,12.842351244551038,17.050705075791807
3836.1887,12.824390156076149,16.612498262119196
3837.0713,12.814894323567437,16.822430769610325
3837.956,12.810306468775527,15.722012029607688
3838.839,12.80930262984616,14.97720204032397
3839.7244,12.814324353396621,16.36041976644995
3840.6077,12.830220742832218,16.000104284298857
3841.4932,12.859988034000414,15.89344173285173
3842.377,12.900600671362318,15.348258594304513
3843.261,12.944412989804754,16.00278000781461
3844.1472,12.984549820304627,16.007235612486987
3845.0315,13.01951506955629,18.618024488872642
3845.9182,13.053673467058443,17.439194669386943
3846.803,13.092024153124264,15.630773713004825
3847.69,13.136366573451411,16.47825884010104
3848.5752,13.18334499974041,15.437973199431038
3849.4604,13.22732636486435,14.714158657720505
3850.3481,13.2634171825289,15.483991207486064
3851.234,13.288877115335273,14.831886862278001
3852.122,13.303048619959451,14.954010389789827
3853.0083,13.30544494414201,16.721977780169258
3853.8967,13.295983602241119,13.923132040277643
3854.7832,13.276499255751714,14.52496193695581
3855.6702,13.251774639908154,15.685707781779229
3856.559,13.228299154225901,16.295935966418366
3857.4463,13.211213925856537,15.406470513395075
3858.336,13.201581096638769,16.394603763166856
3859.2234,13.197010755427245,15.9127178040845
3860.1135,13.193700685492272,14.822826866350994
3861.0015,13.188381124273452,14.833619764841787
3861.8896,13.17849577057734,14.03567869281187
3862.7803,13.161893360502571,15.318163214484859
3863.6687,13.137340585472172,15.39774526248521
3864.5598,13.104654222594132,14.633619652016666
3865.4487,13.064781685638154,15.991191015900649
3866.34,13.018113340478019,15.675448090803163
3867.2297,12.965390296297878,16.939474889226346
3868.1213,12.90819542636398,15.886849631447827
3869.0112,12.850303464203616,17.18038643078268
3869.9014,12.79511975457277,16.120874516912966
3870.7937,12.74361136900262,16.775481338104196
3871.684,12.694089061987931,16.760707789218095
3872.577,12.643208431330667,17.088422922087965
3873.4678,12.589310701929245,16.040819380402468
3874.361,12.53231779525222,16.041497833150196
3875.2524,12.473928652507498,17.260535059534835
3876.1438,12.415003806794648,16.96721530892456
3877.0376,12.354857262876601,18.212999698314803
3877.9297,12.292185941181051,16.988389327552984
3878.8237,12.225589615936114,16.92188617692033
3879.716,12.155472959246513,19.377683674989566
3880.6108,12.081878674916998,19.32095154225143
3881.5037,12.003905103205861,18.687972551928723
3882.3965,11.91812304146748,18.550112067425196
3883.2917,11.82095778783455,19.293178183722556
3884.185,11.712339652756855,19.3004640323016
3885.0808,11.595324084430622,19.801063776448938
3885.9746,11.477570804275109,20.90475606041986
3886.8706,11.367595953992042,19.384886152929287
3887.765,11.275306376270873,21.61859432444274
3888.6592,11.208706088041074,20.449717865405162
3889.556,11.173035654280932,22.826306985957803
3890.4507,11.169545546782699,22.05286633676122
3891.348,11.195177148474658,20.95281197498885
3892.243,11.244286461978986,21.847167488668717
3893.1406,11.310965474795555,20.37642266601117
3894.0361,11.388810332802967,19.962766295731136
3894.932,11.472141499624524,19.98741646665655
3895.83,11.556101236295087,21.474235845116326
3896.7263,11.637170262208398,18.683153724801556
3897.625,11.715093443612847,18.76072330395501
3898.5215,11.79030895313976,20.049494736748578
3899.4207,11.864104912130902,19.91539393665888
3900.3176,11.936691145733677,18.21242590220283
3901.2148,12.009563388565999,19.047963539746124
3902.1145,12.085316815832238,19.453946219643818
3903.0122,12.165731115328214,19.281506163956106
3903.912,12.251113284083797,16.91095329480198
3904.8103,12.33851925044277,17.911832688402775
3905.7107,12.424780256000558,17.62092276934838
3906.6094,12.5066104197143,16.461525207547773
3907.508,12.582461320574284,17.411200426701765
3908.409,12.6519891947135,16.77823089532643
3909.308,12.715365022525154,17.735459961783477
3910.2097,12.773476713917137,15.640584385722963
3911.1091,12.825690685288547,15.838325364828224
3912.011,12.871088954516983,15.858239490623507
3912.9111,12.908817651062465,15.749888253390372
3913.8113,12.939922828977297,16.795775172085577
3914.7136,12.966358633908868,15.538638384748902
3915.6143,12.989248126434873,16.699828918263073
3916.517,13.008433704352433,16.819561275386256
3917.4182,13.022625460940978,16.378910559683927
3918.3215,13.030862463684524,16.552753747597798
3919.223,13.033006007840795,15.189803374723624
3920.1245,13.029873529148691,15.819003956647014
3921.0286,13.022715502233254,15.90399983818958
3921.9307,13.013123200725735,15.607051367167337
3922.835,13.003000763488767,16.279526541921506
3923.7373,12.994566209583867,16.09663888713689
3924.642,12.98950450956584,15.791081516826743
3925.5452,12.988548297307679,16.18112168232252
3926.448,12.991466472736912,15.19497706084547
3927.3535,12.997377406138254,16.429974128198854
3928.257,13.004506803039733,14.864162851015983
3929.1628,13.010281625393294,15.185786580081707
3930.0667,13.012008749257035,16.3651023648897
3930.9731,13.007981613884402,15.386784965477922
3931.8774,12.997747641594692,16.743291665216255
3932.782,12.981508934473139,15.568832353360856
3933.6887,12.959296334092366,15.249996321076322
3934.5938,12.930431923548902,16.59717932291474
