wavl,flux,ivar
3566.9744,4.01466021250963,44.724922155822334
3567.795,3.9825010170929027,33.634915781032625
3568.6177,3.9391278592632686,37.819150981950635
3569.4385,3.895206543906039,29.875617845696034
3570.2617,3.861064391648297,34.10040029185659
3571.083,3.8428089356821853,43.291307632076624
3571.9065,3.8397143740675395,35.37145343730329
3572.7283,3.8458445617858565,45.92926435643239
3573.55,3.8530334035115734,51.18809752879433
3574.374,3.8543039996616297,36.90581038590707
3575.1963,3.8464011979779884,36.654377840716904
3576.0208,3.8310960173284894,42.42528186311883
3576.8435,3.81498066330966,36.18081183308457
3577.6682,3.8066017643412935,34.9816616089471
3578.4915,3.811983257961637,50.68585502243082
3579.3145,3.8303688482555116,39.55369231950967
3580.14,3.8546651592611183,45.25251759226154
3580.9636,3.8763617243093567,42.57194218473023
3581.7893,3.8918691401905097,45.04711844912807
3582.6133,3.903486416827783,24.57044700820007
3583.4395,3.9158366948253187,36.03823727280627
3584.264,3.930778003965712,35.64142996312198
3585.0884,3.9457989467107795,35.70276770843864
3585.915,3.9555342109150384,42.88950724602351
3586.74,3.95459827792088,42.35937889289064
3587.5671,3.940032864254497,46.90181295800421
3588.3923,3.9126349391655557,32.93408255241167
3589.22,3.8770724720420793,34.02123960071129
3590.0457,3.8416798928734766,35.67241046329869
3590.8716,3.8152356115178563,47.06475611819913
3591.6995,3.8032845322779587,63.70591810357042
3592.526,3.805043020729901,38.78499239765703
3593.3542,3.8137383425764457,29.631843713767484
3594.181,3.820472548870896,41.336029244836865
3595.0098,3.818601117045646,54.85754821841051
3595.8367,3.805914442336873,38.887986083095825
3596.6638,3.7847370554914446,38.79762140156565
3597.4934,3.7608279854930693,40.50143760570512
3598.3208,3.741470225309498,35.78510719950369
3599.1506,3.731463116800446,30.741301484474945
3599.9788,3.7301762513846475,65.92465441920127
3600.8088,3.73119223542217,48.8003222571694
3601.6372,3.7265966486679494,33.012168833625815
3602.4678,3.712823482718179,40.81855169417624
3603.2964,3.693838932406646,50.39532616411942
3604.1252,3.678602946423496,55.18763140995894
3604.9565,3.6753795412660577,72.78787172657918
3605.786,3.6869319213257605,45.16905604517573
3606.6172,3.709798180366636,36.298096321114755
3607.447,3.736673258215426,47.12910926286986
3608.2788,3.75989797048928,43.409974451752326
3609.109,3.7736995123470947,31.96053852322658
3609.9392,3.7764733168985725,32.87504455118891
3610.7717,3.770840022458361,47.2609055348967
3611.6023,3.761692243785139,42.87634102274928
3612.435,3.753055470162866,38.937816168532365
3613.266,3.74696878550504,46.6003703578065
3614.0994,3.7442540905680346,44.591639781764435
3614.9307,3.7455647377387256,37.03073368698983
3615.7625,3.7509050898149336,38.29819941767235
3616.5962,3.7587400652812635,52.22589056091875
3617.4282,3.765736625744198,44.29365903722723
3618.2625,3.767624264676452,44.55800136158656
3619.0947,3.7604110280788916,36.97994658293704
3619.9292,3.741996844238709,35.07536030867723
3620.762,3.7136690881727596,41.73111379023618
3621.595,3.679872103294904,45.28303885893502
3622.4302,3.646636709305023,47.09200440630306
3623.2634,3.619602435341338,58.04484229833051
3624.0989,3.601900693654387,41.06649103271468
3624.9326,3.594065278779697,47.14742377868234
3625.7686,3.593712078473811,39.99172655497697
3626.6028,3.5963151110860605,46.103551976428314
3627.437,3.5967049519478143,35.096300750657704
3628.2734,3.5912800715306794,50.460159042864255
3629.1082,3.5798888640864543,40.493757695124536
3629.945,3.5661466407897144,36.2835977612502
3630.78,3.5562036637857397,41.43926928928437
3631.6174,3.5554480061469187,51.76269886184101
3632.453,3.565131822455149,59.99958260007843
3633.2883,3.5810610514967602,39.96955042457192
3634.1262,3.596479003666208,39.564859083849875
3634.9622,3.6066594977554502,42.73988913855761
3635.8005,3.61141233294326,70.49461589225754
3636.637,3.6127474986895334,46.268652707888016
3637.4756,3.6115188674970176,39.44848464823824
3638.3123,3.6064635547048804,49.46725608877692
3639.1492,3.596166947769387,59.55907075553657
3639.9885,3.581230171081145,51.9661900423222
3640.826,3.564779319458163,50.50623131571468
3641.6653,3.550723045216956,38.67928502641087
3642.5032,3.5420777492922997,70.27161695670213
3643.343,3.5396320507500874,33.98489334650801
3644.1812,3.542138616626011,41.07711020619123
3645.0195,3.5470280130921696,48.58629947705254
3645.86,3.551469104525797,30.698201077853973
3646.699,3.553471197071227,53.698886694554496
3647.5398,3.552809075778907,29.723521023758913
3648.379,3.5506612371122914,44.41736167270658
3649.2202,3.547946306455264,38.28982683885068
3650.0596,3.5437351433095006,40.52054123063914
3650.8994,3.535433538304661,47.566599036873946
3651.7412,3.5210164571892144,41.44772035517191
3652.5813,3.5013718509579026,53.945170268167814
3653.4236,3.4800343789263177,66.46186255646731
3654.2642,3.461418360186949,45.76480016465615
3655.1067,3.4483399752816877,39.16267015636684
3655.9475,3.4414466577540237,63.98785247675963
3656.7886,3.4392161463830297,61.88828184231581
3657.6318,3.4392923103277515,66.61458936939914
3658.4734,3.440547968110275,37.331785105825574
3659.317,3.4445143215754115,49.678635851943284
3660.1587,3.4539477030869707,42.83199282530537
3661.003,3.469308140573601,52.36562103052116
3661.845,3.4863651164306106,49.39365895427782
3662.6875,3.498553287357723,65.71713306209963
3663.532,3.5017149303630655,36.95285575064367
3664.3748,3.4974233318997796,42.66644292303336
3665.2197,3.491333571629169,44.54066559679104
3666.063,3.48795284020346,50.44873439281076
3666.9084,3.486779710085025,49.24975757842141
3667.752,3.483879793854431,39.9468319489955
3668.5977,3.476985933349979,48.68275068795591
3669.4417,3.468721734748477,68.77684827663465
3670.286,3.4642887955260524,41.26437990786368
3671.132,3.4666141173449927,79.999696380948
3671.9768,3.473932074302504,43.92861431537005
3672.8235,3.4818986877624396,48.42063570149603
3673.6685,3.4871192422482333,45.41291335691318
3674.5156,3.488782304392141,57.16750469572657
3675.3608,3.487645184346942,46.4360086892764
3676.2063,3.484713954536813,58.21794965591504
3677.0542,3.480596333055606,38.57703206307449
3677.9,3.475168509222566,49.774728619225584
3678.748,3.4670817669628073,58.41104754405718
3679.5945,3.4544052199099364,43.06966212166706
3680.4429,3.436304852240402,44.87222869180128
3681.2896,3.4150317792346434,53.009749792307375
3682.1365,3.395408699126334,69.29241050603915
3682.9856,3.382363882141353,66.00593222033213
3683.8328,3.3777781677252126,157.72311470893683
3684.6824,3.378837493182749,31.903162684298575
3685.53,3.3796221212759767,64.17627921224818
3686.38,3.3746398055131173,31.49007130331348
3687.2278,3.3623921067550344,37.241970270154695
3688.0762,3.3466915182747283,136.98669028045157
3688.9265,3.334940268209528,45.43159378259149
3689.7751,3.3339191034220446,52.7079393269218
3690.626,3.3451218478043945,46.311119267748374
3691.475,3.362917647432414,45.475044911329135
3692.3264,3.3772755601441595,68.16669175594873
3693.1758,3.3794444061011077,37.63896811369868
3694.0254,3.367660833038665,60.255371523984635
3694.8772,3.3481309102925954,77.39068988260965
3695.7273,3.3314809455189285,34.227038168284054
3696.5793,3.3264037797682553,52.477582900377875
3697.43,3.335413124890603,43.36937977081243
3698.2825,3.354182638398683,68.71329314271702
3699.1333,3.374617746906888,44.93341750077823
3699.9841,3.389818356116448,54.36666200487383
3700.8374,3.396901904952951,44.12677700611707
3701.6887,3.396207170097261,45.3992759936961
3702.5425,3.3884528030546224,57.405700803535595
3703.3943,3.373440857999235,46.26850594919211
3704.2483,3.351809536956541,52.894054547494434
3705.1003,3.3276460024355274,40.92889436136419
3705.9526,3.3072015454781254,80.49276647324247
3706.8074,3.295091459036461,53.12020663679694
3707.66,3.2912744008037897,104.29923306003175
3708.515,3.2916176616518777,41.17261165545039
3709.3682,3.2913032679155276,55.50001703538186
3710.2234,3.2872446624159046,49.56418907027845
3711.0771,3.278507782872264,53.8494560848974
3711.9307,3.2657940510651207,61.704725292529105
3712.7866,3.251077439730839,63.973805437647144
3713.6409,3.237173095998921,79.15597982590704
3714.4973,3.226303514636206,55.3410766000469
3715.3518,3.2194295178625683,34.223708548218895
3716.2085,3.2161849661285533,62.557238585085564
3717.0635,3.2157206208870477,45.86951838436427
3717.9185,3.2171893451307287,42.084743854911615
3718.776,3.2202167062997025,74.53069312771923
3719.6313,3.2252323656677406,53.221562439640046
3720.489,3.233414280640967,47.264005955580906
3721.345,3.24569919581586,57.840002933831144
3722.2031,3.261892149069588,38.71683758640144
3723.0593,3.2800485869915046,70.6053063159096
3723.9158,3.297241964024767,46.013795389595685
3724.7747,3.3105485616869665,50.90853108235197
3725.6316,3.3181926671218718,38.59323910228592
3726.4905,3.3204842087214597,45.08686087346656
3727.348,3.3193084735052913,83.21372933441617
3728.2073,3.3168529661079886,56.188700724870756
3729.065,3.3141771020430775,60.30730485908613
3729.9229,3.3106267904231306,42.7921005586222
3730.783,3.3044278892857983,40.73913302074279
3731.6414,3.294025980738148,46.50435625235047
3732.5017,3.279162818033423,73.9218201228525
3733.3604,3.2614141510311248,50.962240976405035
3734.2214,3.2431648434197364,62.04195922619188
3735.0803,3.2265451395517273,45.46879448569891
3735.9417,3.212242164720282,46.95927480966974
3736.8013,3.200360659287575,70.69089046553795
3737.661,3.1915611949615257,67.07286736230837
3738.5227,3.188100919500707,53.1218591444799
3739.3828,3.1931345027040154,54.68816286574052
3740.245,3.2084194719855836,62.48093516692491
3741.1055,3.23167436041359,54.241079506955415
3741.9683,3.256170053502596,48.19196925048744
3742.829,3.2727428296356265,47.225547688827255
3743.69,3.274645975402733,57.261636199489715
3744.5532,3.2607424668043774,61.13716632010296
3745.4148,3.2359833663988637,57.7286082574703
3746.2786,3.208285999549843,61.159897149165104
3747.1404,3.185178764865555,83.81310410970342
3748.0044,3.1710903554630185,75.38250680198445
3748.8667,3.167495904100175,58.53359529629793
3749.729,3.1730921842295436,72.41243862900089
3750.5938,3.1840169851163056,65.63541008859781
3751.4565,3.1941303111817985,53.10517223473099
3752.3215,3.197654178972053,62.05857553252949
3753.1848,3.1927231117753814,62.686992836905716
3754.0503,3.1830070122370837,59.799713800036834
3754.9138,3.1751713518358886,61.70368712301876
3755.7776,3.1740425918232744,45.08038221789003
3756.6438,3.179968649097001,71.51105455721765
3757.508,3.1895783247321208,58.41247543033699
3758.3745,3.198838478782661,51.37931461560098
3759.239,3.2053367712488443,59.28957539988892
3760.106,3.208929392700948,65.92776803749473
3760.971,3.2104115624471925,50.21502235443996
3761.8362,3.210054987027203,53.46656368157413
3762.7036,3.2071369410357082,59.12442230824614
3763.5693,3.2009971467384464,46.13223156549921
3764.437,3.1922591341122133,49.123947089115305
3765.3032,3.1829891426081027,52.54195330379237
3766.1714,3.17518102166421,67.78241583798577
3767.0378,3.169295079944994,58.64111530141283
3767.9043,3.1638242864062267,69.38591101624148
3768.7732,3.1565103471586404,63.06275465516304
3769.6401,3.1459177942050083,54.365334349460646
3770.5095,3.1319166911857677,70.74398776341035
3771.377,3.115576975165278,61.7080137191478
3772.2466,3.098500219980187,63.12188819893507
3773.1145,3.083075640683035,60.087518308594134
3773.9824,3.071977372083588,79.015435223074
3774.8528,3.0673126224990876,56.50182432152219
3775.721,3.0693256139884975,63.316325108444644
3776.5918,3.0758590362297134,70.37674807907746
3777.4604,3.0832725310806035,68.2129524679872
3778.3315,3.0884134376844745,57.7064032429422
3779.201,3.089981633034238,68.21709074438606
3780.0703,3.0886944883055993,55.57714646547976
3780.942,3.086133622292016,42.3895321197543
3781.8118,3.083718499663548,74.67771532436724
3782.6838,3.0822880963946915,62.63220473367245
3783.554,3.082124000593476,55.23366625294775
3784.4265,3.082993912559862,60.08353126925872
3785.297,3.08460345294459,52.71484358094111
3786.168,3.087391707237849,84.80340980683152
3787.041,3.092627838675605,72.46280738326506
3787.912,3.100980282142361,55.92027343805509
3788.7856,3.1108948928761757,57.156184499368095
3789.6572,3.1185406500315027,73.94072877412698
3790.531,3.120258188892062,63.79829153313949
3791.403,3.1146630096509447,60.359270152099285
3792.2754,3.102690258131233,52.82175125694945
3793.15,3.085932251527783,63.73470589834262
3794.0225,3.065922693982743,70.27306140799472
3794.8972,3.044376733862998,69.52642962522138
3795.7703,3.0240978735067623,46.985643359415945
3796.6455,3.0079374878647562,63.16388869104515
3797.519,2.997805240839103,79.34352716439601
3798.3926,2.993802997150357,67.44471043871768
3799.2686,2.9948652011503323,61.605930264574035
3800.1426,2.9995214469925644,82.01117594788134
3801.0188,3.006479883907338,95.082796619312
3801.8933,3.0147572868753105,55.996223691983424
3802.77,3.023481502769103,99.40542723694371
3803.6448,3.0308281437703575,52.31196665385411
3804.522,3.0336663697788975,63.4847931880434
3805.3972,3.0289208050570737,40.358305000670434
3806.2727,3.016531429565976,49.68243296996242
3807.1504,3.000705130015905,70.73994565804615
3808.0261,2.9880199637174165,63.14184598310425
3808.9043,2.983527101235222,72.22390861236325
3809.7805,2.9888836966914054,48.637090082216154
3810.659,3.0026970375975988,66.59833658299738
3811.5356,3.0218702087006535,72.04968846966113
3812.4126,3.04287711674668,83.37790933408253
3813.2917,3.0623775329747143,60.371030931159495
3814.169,3.077532365861606,77.33087097939593
3815.0483,3.0866068513566525,58.03136295741251
3815.926,3.0889879327284557,63.53684990338927
3816.806,3.0855523073182622,62.548698122490286
3817.684,3.0782612223342145,56.94753247270703
3818.5623,3.069059443456245,48.469205680316264
3819.4429,3.0588797124165565,54.10452483467869
3820.3215,3.0477916925095787,46.764424152066994
3821.2024,3.0356076049613843,64.74551852181563
3822.0815,3.022535605270235,58.36058663339995
3822.963,3.0087190151953442,52.485565617025756
3823.8423,2.994203436237029,64.52344541965043
3824.722,2.978808892417437,74.26401824228016
3825.604,2.9623299065242232,75.53221464240764
3826.4841,2.9446731600787768,59.92591217060255
3827.3665,2.925873767877645,57.92907177580644
3828.2468,2.906953946695119,64.20573345066956
3829.1296,2.889399553035148,62.0721908716722
3830.0105,2.874274863360345,59.358197104628395
3830.8916,2.860830653693486,74.00190471891108
3831.7751,2.847222262435943,66.54206984162882
3832.6565,2.8324227210966066,63.910293084360035
3833.5403,2.816939432751111,60.33093545484627
3834.4224,2.802042431713071,87.44599690100797
3835.3064,2.7877033954171293,82.24204923046719
3836.1887,2.7725939053510427,83.9653920019772
3837.0713,2.7556091946589802,77.26792707106243
3837.956,2.7379453694348155,79.1628515062798
3838.839,2.72356894719286,76.75089321820897
3839.7244,2.7173663356663043,77.80702553625508
3840.6077,2.723078848439048,91.69266888987114
3841.4932,2.741779291447425,71.71760418220052
3842.377,2.7716695439670027,81.02015597467155
3843.261,2.8090486982853213,81.32670574016598
3844.1472,2.84909909517011,53.39029123688843
3845.0315,2.886419581007737,55.956717699099876
3845.9182,2.9169385701731683,53.555463513038646
3846.803,2.9386444335714956,62.684664114372836
3847.69,2.9527815930529533,68.06999119513883
3848.5752,2.9626889400058567,56.208196490194666
3849.4604,2.9724572838748324,51.797357446531784
3850.3481,2.985183030651431,72.49994095135258
3851.234,3.0017772937239235,75.07032078330688
3852.122,3.021156395681311,59.94010839239479
3853.0083,3.041009222088565,49.85196122525501
3853.8967,3.059527519492198,48.996511564103855
3854.7832,3.07552123467445,80.09614269441133
3855.6702,3.088272445158319,57.4454559227927
3856.559,3.0971621087671237,60.547197680553474
3857.4463,3.1023189263470465,59.160287912462856
3858.336,3.105206268369939,62.73629096531488
3859.2234,3.107767099191291,56.39926825830082
3860.1135,3.111008439599357,61.978996588080946
3861.0015,3.11410633502147,59.18352297818074
3861.8896,3.11493367858967,70.5075751292725
3862.7803,3.111148345216264,52.896351203440645
3863.6687,3.1012152658266627,58.5693742643563
3864.5598,3.084854251062403,65.11764409487567
3865.4487,3.063525440249324,52.34409401031167
3866.34,3.039760109532587,56.21384353210219
3867.2297,3.016308211715406,61.94405108515036
3868.1213,2.994264533182584,63.53314491460981
3869.0112,2.973202236654916,77.9201694094016
3869.9014,2.952162632472322,71.36636384347061
3870.7937,2.931320071827782,53.8441920136091
3871.684,2.912342257858967,96.35826422366794
3872.577,2.8969285795847544,86.67096615835437
3873.4678,2.8857996970391517,69.18628880624956
3874.361,2.877746448668529,65.13423911123651
3875.2524,2.8700437337550566,69.68959695536883
3876.1438,2.859100915281938,80.8107853393875
3877.0376,2.841759435981093,73.97747828872191
3877.9297,2.8168300555393726,58.449624330049936
3878.8237,2.78546716475866,87.68950345734308
3879.716,2.750893355678131,99.43666694463849
3880.6108,2.716191678223332,65.67442863792172
3881.5037,2.6833210288570872,85.09996285251584
3882.3965,2.6519757142763583,106.56401133474492
3883.2917,2.6203583194169298,97.7340357493695
3884.185,2.586542649158832,78.2075871133373
3885.0808,2.549011313008313,135.72474653021294
3885.9746,2.507974399696579,82.88772088848125
3886.8706,2.4647126523031866,117.69882438024854
3887.765,2.422098190064739,94.64986603697052
3888.6592,2.3836779806394963,98.71624474678156
3889.556,2.353433379757011,109.71026266904028
3890.4507,2.3349475576254113,111.11959410169594
3891.348,2.329843632490884,122.25271372999029
3892.243,2.3378914624886478,113.60657292474144
3893.1406,2.357664736843609,109.60130973271113
3894.0361,2.387201609263021,107.82601426052324
3894.932,2.4245204550335795,102.22656479496119
3895.83,2.467498126598121,136.73243035883237
3896.7263,2.513664173892337,122.81538657058834
3897.625,2.561178360544649,106.82152583176409
3898.5215,2.6078554721183846,86.23500487204531
3899.4207,2.65200723945424,79.34724441618411
3900.3176,2.6918079269886643,97.16669536211674
3901.2148,2.726818148596224,77.5851562438108
3902.1145,2.7578348121947576,79.48496359289534
3903.0122,2.786201317963431,84.7786639773788
3903.912,2.813354580899112,79.90210094185338
3904.8103,2.8395758982798727,60.593113187186965
3905.7107,2.864485610730478,82.83909064419552
3906.6094,2.887337571676079,63.60892981679696
3907.508,2.908321843479438,73.54752955480978
3908.409,2.9285427269733426,63.615933295290084
3909.308,2.9488823665177137,55.6744669026094
3910.2097,2.969278685211009,48.58157880488348
3911.1091,2.9887444356299127,52.929438317919086
3912.011,3.007292976876581,57.253395279674216
3912.9111,3.0261620922080805,62.76092262217623
3913.8113,3.0468044953359406,67.01804818030885
3914.7136,3.0690336793956217,51.76208138755482
3915.6143,3.0906986134434677,60.1136520823181
3916.517,3.1095169941263503,59.252048935942874
3917.4182,3.1241908144230615,55.16705945340274
3918.3215,3.134920272815295,66.14017784821951
3919.223,3.142427694453953,55.12372591254561
3920.1245,3.147557436626457,55.36905021896154
3921.0286,3.1511863297788976,53.82793026063228
3921.9307,3.1545142018194103,49.58635403457298
3922.835,3.159189264641348,55.255907245241396
3923.7373,3.1668392039725597,60.44491066478958
3924.642,3.1784520157642024,61.28171488382985
3925.5452,3.1935757746443705,56.94299441308913
3926.448,3.2104230150727213,49.043494891182995
3927.3535,3.2265014398564764,57.32409598986328
3928.257,3.2393448160341918,58.38352133608695
3929.1628,3.247352095590923,55.40952537279837
3930.0667,3.249564760366502,69.50652408876688
3930.9731,3.245516453209612,58.53586455502339
3931.8774,3.2351336240081774,51.52142250144747
3932.782,3.2191390248968434,53.57885337630511
3933.6887,3.1996398106915276,60.74704689240409
3934.5938,3.180199951148281,67.14186891965879
3935.501,3.1642216844025084,51.38363458361191
3936.4062,3.1532573051672608,50.45825412095974
3937.3142,3.1455453254229453,68.12420883716614
3938.22,3.1370425240735567,62.809191127737115
