wavl,flux,ivar
3566.9744,0.578786153668524,2437.285740504198
3567.795,0.5775541804165126,2102.4647939394404
3568.6177,0.5756511956113025,1601.3001151216058
3569.4385,0.573661654251944,2223.5114909997747
3570.2617,0.5723680140763848,3372.3412166611556
3571.083,0.5723783406577672,1725.6312416816054
3571.9065,0.5738062834725648,1672.0976924214824
3572.7283,0.5763023561411925,1965.746764592706
3573.55,0.5793633278638985,1291.323102097053
3574.374,0.5825864619930701,1811.7276815771795
3575.1963,0.5857509012106927,1302.0927918817504
3576.0208,0.5890357333913574,1755.1464480400832
3576.8435,0.5931043388512585,1487.8782872862243
3577.6682,0.5987677037838272,2408.849343144611
3578.4915,0.6058030733435138,2315.370996315327
3579.3145,0.6122390276410491,1759.0848201871395
3580.14,0.6151155374066697,519.8178830531674
3580.9636,0.6125618245520633,2177.7184024202866
3581.7893,0.6053530664097587,1720.3194459564172
3582.6133,0.5964085144711371,1791.0719281185932
3583.4395,0.588729473096532,1425.9195124620192
3584.264,0.5839765044538391,2763.4935962998225
3585.0884,0.5821762611260899,2474.776951918386
3585.915,0.5825629857885489,2065.3665733563457
3586.74,0.584248376600801,1765.1888059269381
3587.5671,0.5863896801687246,1981.86892552421
3588.3923,0.5880594464795927,1586.6901020640564
3589.22,0.5884062107119425,1273.133995578067
3590.0457,0.5870609874518076,1511.8657174068276
3590.8716,0.5844523144498888,2154.4627340263496
3591.6995,0.5815927137062119,1505.8988633336348
3592.526,0.5795382373356174,1869.662581940619
3593.3542,0.5788465114568255,1517.0537991672354
3594.181,0.5794634953857565,1704.754310565781
3595.0098,0.5809072978812205,1895.652361909057
3595.8367,0.5825572612225168,1766.2503555636522
3596.6638,0.5838526871145641,2194.7904215655635
3597.4934,0.5843204271857025,1861.2364431843066
3598.3208,0.5836451007734464,1800.756600979458
3599.1506,0.581828715472553,1325.1241829021658
3599.9788,0.579303676282144,2574.3398177535414
3600.8088,0.5768130953472372,1199.8293627516844
3601.6372,0.5751890808288913,1457.3632037184518
3602.4678,0.5749483055662697,2124.979042522416
3603.2964,0.575932542819959,1970.5786671189662
3604.1252,0.577206249435977,1443.1292455764294
3604.9565,0.5775542885327901,1738.539690603944
3605.786,0.5763603794811525,2112.9743297382674
3606.6172,0.5741707673065387,1878.2453097910743
3607.447,0.5724032608711961,1625.696585034178
3608.2788,0.5723399525645093,1888.4375614098587
3609.109,0.5742569679537095,1767.2263058542414
3609.9392,0.5773489589545598,1778.3822018567757
3610.7717,0.5805092790861055,1208.3608893145256
3611.6023,0.5831678937511848,2308.212743234308
3612.435,0.585512233117069,1609.2544697365856
3613.266,0.5878583274472883,1562.8587230463918
3614.0994,0.5900915657348668,1619.044808603123
3614.9307,0.5916021880760811,1664.2554606843107
3615.7625,0.5918077930619866,2249.5586033630825
3616.5962,0.5905671561471968,1849.442304612038
3617.4282,0.5882231945528232,3314.2258827073492
3618.2625,0.5852473906934798,1584.523960822019
3619.0947,0.5819548187944035,2124.910610423079
3619.9292,0.5784060504352058,1879.4197725895247
3620.762,0.5747002862680441,1425.889344308254
3621.595,0.5711724658487103,2034.0427646081923
3622.4302,0.5684246760708044,2392.0052551438134
3623.2634,0.5670218107750985,3538.2449774017673
3624.0989,0.5670500690033278,2331.653684088313
3624.9326,0.5680476885444349,1898.3157908774829
3625.7686,0.5693491072277236,1474.1864775759364
3626.6028,0.5705656039910958,2292.386328135627
3627.437,0.5717718450864748,2158.6065734917706
3628.2734,0.5732170632006801,2011.68100061143
3629.1082,0.5749204966708926,1798.6418658567945
3629.945,0.5765973034745814,2142.660175253268
3630.78,0.5778636659178158,1561.3628104887393
3631.6174,0.5785332611789615,1835.027240871577
3632.453,0.578650667076119,1478.4955017936195
3633.2883,0.5783976201812828,2237.6334504380125
3634.1262,0.5779809322625002,2367.5230147757457
3634.9622,0.5776110277673262,1638.383270796479
3635.8005,0.5774802216888825,1851.3785045967293
3636.637,0.5777315757980155,1520.2312706644755
3637.4756,0.5784332025252984,1812.1248884501274
3638.3123,0.5795515166282008,1865.571477953767
3639.1492,0.5808621777105195,2735.7235454479146
3639.9885,0.581816078024706,1774.7100893941274
3640.826,0.5816438869079468,1815.3898361261663
3641.6653,0.5798587996723972,2288.7491920429397
3642.5032,0.5767503919723285,1767.4764134743293
3643.343,0.5732730845492745,2655.9267924872947
3644.1812,0.5703953268187585,2235.107841446128
3645.0195,0.5683921626172971,2872.2221801114615
3645.86,0.566833611682758,1501.1215838642815
3646.699,0.5650749636789902,1776.1940296208247
3647.5398,0.5627160590606632,2104.54350265729
3648.379,0.5597766025903964,2313.2617343500224
3649.2202,0.5565004968349555,2222.0873893433372
3650.0596,0.5531969473057202,2427.188808861539
3650.8994,0.5501178876583792,2354.824077134607
3651.7412,0.5476004419090019,1921.0513357419684
3652.5813,0.5461364352195409,2013.4020187973672
3653.4236,0.5460932143046248,2206.387343854002
3654.2642,0.5473348149091813,1536.2234463833875
3655.1067,0.5491570633725158,1485.471288143628
3655.9475,0.550718285565868,1614.4118496618414
3656.7886,0.5516039454347125,2380.482121989137
3657.6318,0.5520027766399038,1765.1448273932801
3658.4734,0.5525236259293025,2236.1915145244384
3659.317,0.5538283493221425,2075.998303305654
3660.1587,0.5562233816008828,1567.8747993190905
3661.003,0.5594657020206812,1845.891237622041
3661.845,0.5628401238568497,1782.6359921720248
3662.6875,0.5656174063418454,1393.8103115738952
3663.532,0.5673683225630841,2452.717422003454
3664.3748,0.5680158775405273,1716.4596073177954
3665.2197,0.5676912282741989,1648.5927321480897
3666.063,0.5666228538769961,2560.2015716475635
3666.9084,0.5652125409572912,1551.7060295442388
3667.752,0.5641114293472297,2241.4556936645467
3668.5977,0.5639891003735643,2583.812347110331
3669.4417,0.565121317027131,1746.7004862191939
3670.286,0.567106268160297,1941.8770186500806
3671.132,0.5690563378803404,1679.3290489142657
3671.9768,0.5701524182425247,2139.6602987553124
3672.8235,0.5701967147581409,2051.8961872391906
3673.6685,0.5696441031011731,1765.8560762528082
3674.5156,0.5691023253639783,1751.0427174915949
3675.3608,0.5687029247506454,1795.1357706873453
3676.2063,0.5679296045147412,2004.6575048877478
3677.0542,0.5661444707415537,1823.5679750686138
3677.9,0.5633644146128992,2951.561102407189
3678.748,0.5604444227809767,1983.962518289989
3679.5945,0.5585326584339563,2333.833375789815
3680.4429,0.5581503052361823,1895.7593142279757
3681.2896,0.5588568287525681,1648.3704235471396
3682.1365,0.5596276962316087,1813.3127492851559
3682.9856,0.5595506794574989,2497.4236739888256
3683.8328,0.5582496159924447,2365.8143811045707
3684.6824,0.5558592903833521,2640.164037748487
3685.53,0.5528233604555927,3240.081593754684
3686.38,0.5496537044269962,1669.5223908070961
3687.2278,0.546843173962068,2867.168768798912
3688.0762,0.5446800320066691,2705.002249650188
3688.9265,0.5432175548724498,2174.4566266364563
3689.7751,0.5423605350503741,2149.1837792712395
3690.626,0.5420282362692155,2327.4027163929627
3691.475,0.5423168498579449,2615.3511206414996
3692.3264,0.5435350592548782,1837.5890163813187
3693.1758,0.5460705622992365,2766.069668858022
3694.0254,0.5500879481145872,2358.5589653415823
3694.8772,0.555203882643522,1699.082246552587
3695.7273,0.5604539021939429,1555.8962160339292
3696.5793,0.5648441052610325,2001.1842600631555
3697.43,0.5678261355168167,2136.4031104107003
3698.2825,0.5695046495670582,2067.141170681777
3699.1333,0.570233685490566,2022.9494657114396
3699.9841,0.5702054790129607,1260.5561428013443
3700.8374,0.5693411945046375,1670.1163593673084
3701.6887,0.5675806696313532,2230.449217670758
3702.5425,0.5651275359315774,1980.731184755068
3703.3943,0.5624284892463935,2291.268946653892
3704.2483,0.5598432442667538,1780.464869965517
3705.1003,0.5575375706172907,1866.890607861819
3705.9526,0.555592979530794,2023.0957963570918
3706.8074,0.5542547927346305,2090.8367520039865
3707.66,0.5538730084430982,1775.9036144166957
3708.515,0.5545443381961208,1533.1744138282156
3709.3682,0.5559124258962558,1880.9663240693483
3710.2234,0.5573725256180161,1682.9545407445733
3711.0771,0.5584512445795046,1872.3555467610763
3711.9307,0.5590249468474726,2586.2643324112446
3712.7866,0.559203651424757,1919.3610122412115
3713.6409,0.5591498575442654,2029.628733805843
3714.4973,0.5590344640059033,1593.5696594027502
3715.3518,0.5590764244172162,2320.2753134156865
3716.2085,0.559485194460287,1790.538127657419
3717.0635,0.5602705975101328,1811.4355995065048
3717.9185,0.561134034466215,1962.9310854570201
3718.776,0.5616056822710987,2050.900378893265
3719.6313,0.5613335801363954,1771.951708539675
3720.489,0.5602799235128056,2855.943791565292
3721.345,0.5587100349923341,3159.750307554915
3722.2031,0.5570643408129409,2202.2464700286237
3723.0593,0.5558671338576779,3224.438310675912
3723.9158,0.555551977399846,1829.6909228724967
3724.7747,0.5563122026585908,2003.5123336255388
3725.6316,0.5580189547678851,2042.9220010267325
3726.4905,0.5603389614192871,1907.3066707725368
3727.348,0.5628421250307916,2566.282715348643
3728.2073,0.5650461618873167,2195.1476377207714
3729.065,0.5663546504774367,1580.7798653785576
3729.9229,0.5662680561232207,1733.2619790697195
3730.783,0.564745196778169,1986.0665632938317
3731.6414,0.5624327096613213,2632.9087204766015
3732.5017,0.5602924134228127,2116.3859942907716
3733.3604,0.5589378790415331,1825.4870673241799
3734.2214,0.5582255316440116,2580.061273182229
3735.0803,0.5575577183537098,1894.4475768937
3735.9417,0.5564219312008022,1995.5665413633365
3736.8013,0.5546880351436431,2148.0049542223014
3737.661,0.552514558563097,2038.484987957838
3738.5227,0.5502307750648213,2370.410347307451
3739.3828,0.5483224196672447,2302.935149501384
3740.245,0.5472863092288845,2291.542580889502
3741.1055,0.5474246297229743,1717.7365356998287
3741.9683,0.5486788338241534,2359.4318277554016
3742.829,0.5506978962197915,1982.8616387874974
3743.69,0.5530271322727761,1673.122145064947
3744.5532,0.5552171849780705,1725.6729464902392
3745.4148,0.5568562431342038,1629.3693268985066
3746.2786,0.5576809143813576,1726.4168046742689
3747.1404,0.5576413695084912,2039.3843546425733
3748.0044,0.5569405945769421,2138.0588538446254
3748.8667,0.5559361794521661,2085.501225436799
3749.729,0.5549606292827227,2099.088193070492
3750.5938,0.5542072620187575,1752.1152557467856
3751.4565,0.5537894077769404,2941.1703038502847
3752.3215,0.5538790062345168,1752.1093294262027
3753.1848,0.5547127733031845,2079.563934357346
3754.0503,0.5563544264607782,2890.7508601289874
3754.9138,0.5584759907034165,1438.731806223881
3755.7776,0.5605103241309416,1937.5785315708774
3756.6438,0.561965272845587,1949.4538957647076
3757.508,0.5625844968362724,2157.827489880096
3758.3745,0.5623187880349055,1780.901268913749
3759.239,0.5612596113795816,1849.3580661120504
3760.106,0.5596465722149846,2172.1702189823122
3760.971,0.5578218581385568,1326.0336303396741
3761.8362,0.5560579746264181,1943.3548678956347
3762.7036,0.554544011721012,1689.0065106726263
3763.5693,0.553518806073711,1945.5903340597797
3764.437,0.5532382115761727,2599.6163037451624
3765.3032,0.5536865739479545,1858.5318511520395
3766.1714,0.5543120189306263,1872.8782089440829
3767.0378,0.5542631156688425,1534.6673062187922
3767.9043,0.5530272857871689,1764.7673419058335
3768.7732,0.5508119838763906,2244.5834220120432
3769.6401,0.5483513998481078,1941.4734734747337
3770.5095,0.5463131880351246,2089.897008162624
3771.377,0.5449838602706895,2513.5046059738575
3772.2466,0.544251285107918,1848.0481299725172
3773.1145,0.5438466268422719,2345.929671945281
3773.9824,0.5435391466157224,2569.5973041796888
3774.8528,0.5432884292567677,1731.8666913770983
3775.721,0.543313814072253,2553.706967251247
3776.5918,0.5440442866695061,2018.54387851594
3777.4604,0.5459122247520555,2406.3636786190627
3778.3315,0.5490770579264875,1907.8100469848375
3779.201,0.553173156214508,2697.6435650277954
3780.0703,0.5574278125554307,1982.8475186944424
3780.942,0.5610186004052329,2070.1286207874214
3781.8118,0.563448835272169,2001.7810118074829
3782.6838,0.5647220821073231,2277.6884307143705
3783.554,0.5651157489381102,1910.3237807309702
3784.4265,0.5649830983856928,1871.5299927914195
3785.297,0.5646434475679465,1778.7579169499297
3786.168,0.564307706843378,1672.0389302761653
3787.041,0.563947327221376,1971.5788589082226
3787.912,0.5632704974551114,1980.5674103718486
3788.7856,0.5619307607140408,2153.5300968796064
3789.6572,0.559846606498236,1793.120944430951
3790.531,0.5572879073688921,2182.6112123392186
3791.403,0.5547861047453585,2399.732680975946
3792.2754,0.5528737623563553,1542.2921992084214
3793.15,0.5518698570099743,2722.478983679866
3794.0225,0.5516590864471642,2210.8433174220545
3794.8972,0.5516184847617306,1931.4247277554036
3795.7703,0.5509160073360455,1886.5706018772798
3796.6455,0.5490502434870821,2076.9005973344224
3797.519,0.5462617544037638,2090.0914498326456
3798.3926,0.5433873702711685,2356.9160369976194
3799.2686,0.5413076082078612,1826.6995619571308
3800.1426,0.5404040181337278,2680.057254825994
3801.0188,0.540366740469055,1829.174733301809
3801.8933,0.5405506867475982,1661.5517304025502
3802.77,0.5405386897123103,2209.1494165134554
3803.6448,0.5405122497802255,2268.120136686202
3804.522,0.541128245238731,2556.4500018761264
3805.3972,0.543001572981141,2060.325733738081
3806.2727,0.5462247460763068,2407.6405729067933
3807.1504,0.5502556042324931,1820.4768823906047
3808.0261,0.5541625092687201,1715.4458064578225
3808.9043,0.5571619002925305,1919.9019223517503
3809.7805,0.5589268775712094,2178.309147287781
3810.659,0.5597563611638068,2588.8936258688163
3811.5356,0.5603842132193387,1877.7619067283165
3812.4126,0.5616702308541763,1760.703592367553
3813.2917,0.5641866859784441,2185.4196157684873
3814.169,0.5678125558938808,1939.2547105572119
3815.0483,0.5716703073515801,1638.5066571622249
3815.926,0.5744497294497347,1707.20380489739
3816.806,0.5752098548422695,1857.3785088048107
3817.684,0.5739190519919998,1870.8621591244864
3818.5623,0.5714228256856803,2079.4089097469264
3819.4429,0.5688179251556659,1544.2888834702326
3820.3215,0.5668746685848612,2394.018625282295
3821.2024,0.5658154413936283,2297.190643041419
3822.0815,0.565520540647446,2045.8898754789689
3822.963,0.5656722612593676,2038.9384028397694
3823.8423,0.5657849648745357,1726.6765401878745
3824.722,0.5652559220624809,1943.550262648673
3825.604,0.5635777037678301,1838.6021381981766
3826.4841,0.5606290612994961,2006.794538749289
3827.3665,0.5567112953418456,2326.2380114665357
3828.2468,0.5523566035010302,1798.6048816060872
3829.1296,0.5478600683285315,2085.0412919027926
3830.0105,0.5431232827016553,2179.7628534350647
3830.8916,0.537711363117727,2267.0863094132396
3831.7751,0.5312901106079915,2554.8447022131563
3832.6565,0.5240296858838407,2594.005274297708
3833.5403,0.5165032278633943,2106.170205291765
3834.4224,0.5096047788985139,2325.2290707493344
3835.3064,0.5042214666147583,2532.031266871435
3836.1887,0.5012668741250884,3153.389492849812
3837.0713,0.5014511303568061,2013.0533214115724
3837.956,0.5049816859711551,3056.448737006906
3838.839,0.5111493646603534,1873.747549425881
3839.7244,0.5184910436169895,2543.3675908123932
3840.6077,0.5254353832006661,2513.1168519285347
3841.4932,0.5313308778860388,2075.8594357930137
3842.377,0.5365924029423546,1747.1261635709386
3843.261,0.5421493562057967,2316.986708869172
3844.1472,0.5484256502969733,1488.1951186692393
3845.0315,0.5548370505068848,1980.5945431284856
3845.9182,0.5602712541774403,1948.6915478572735
3846.803,0.5637828605189765,1545.0599462546534
3847.69,0.5652902409544911,2753.969531949009
3848.5752,0.5655461379313459,1748.9267287440784
3849.4604,0.5657154275227391,1982.8691539904373
3850.3481,0.5667417001168671,1822.645131630038
3851.234,0.5689063525855194,1911.9517772043187
3852.122,0.5718316307172858,1681.8878770587262
3853.0083,0.5748197400486768,1644.6617061384875
3853.8967,0.5773877910239663,1604.7311468501696
3854.7832,0.5794297412940109,1858.5330951214803
3855.6702,0.5810816042271099,1794.0385302978284
3856.559,0.5823912110579967,1833.9942940654307
3857.4463,0.5832357402285216,1541.8858108104785
3858.336,0.583538291532673,1831.3909563395596
3859.2234,0.5834696054023593,1941.8703276473286
3860.1135,0.5834039423246491,1871.7383171860388
3861.0015,0.5836178839163937,1920.0987354197055
3861.8896,0.5840584277439776,2010.4439625210987
3862.7803,0.5844354216583212,1636.4466507067352
3863.6687,0.5844941887291312,1798.915449588387
3864.5598,0.5841332881082335,2008.704189312202
3865.4487,0.5832788741314135,1895.4609633784457
3866.34,0.5817990613761391,2050.223427989521
3867.2297,0.5796686856701574,1883.502257141639
3868.1213,0.5771087203759516,2174.956080792293
3869.0112,0.5745593929182308,1830.0493104672269
3869.9014,0.5724122924736462,2538.123967891003
3870.7937,0.5708166862112863,2135.039106303092
3871.684,0.5695782550893239,1917.9465425048056
3872.577,0.5681668103973234,1671.090511361002
3873.4678,0.5659892012297936,1624.7750635935495
3874.361,0.5627521343441614,1567.66266364852
3875.2524,0.5587848257542847,2246.902913795206
3876.1438,0.5548653946721366,2286.4938906560315
3877.0376,0.5517311405067566,1796.781209312545
3877.9297,0.5495463594096353,2488.067493988654
3878.8237,0.5476740684751983,2030.9545535184661
3879.716,0.5450894108049431,2203.2305074970654
3880.6108,0.5409961976415042,1715.6798322946236
3881.5037,0.5353437296474531,2512.292673589383
3882.3965,0.5287183739832864,2174.542350619453
3883.2917,0.5218951634914135,2326.939325051203
3884.185,0.5153769699699675,2783.0537189527804
3885.0808,0.5090325470681452,2439.4813698952466
3885.9746,0.5023903912029215,1943.1863337782083
3886.8706,0.49493280666909495,2643.1500094383687
3887.765,0.48662240641605425,3178.694057202852
3888.6592,0.47798560480254465,2877.524714717149
3889.556,0.4700891644602413,2782.595899831522
3890.4507,0.46430081703154685,3285.5377865426417
3891.348,0.4617084247953063,3121.674368036379
3892.243,0.46285705729314075,3126.938156741693
3893.1406,0.46763933478381325,2689.959427355869
3894.0361,0.4754428451323356,3067.498827151526
3894.932,0.48540482742247393,2416.8127035074563
3895.83,0.49647852181207636,2773.0419910263195
3896.7263,0.5074289487713565,3187.9327096536053
3897.625,0.517295615523356,2722.6373733214414
3898.5215,0.5255678301871648,2227.317027022214
3899.4207,0.5325761734304906,1990.7159944404311
3900.3176,0.5390801105765136,4191.05743974871
3901.2148,0.545858712280338,2125.7917991279087
3902.1145,0.5531830593813338,2622.704230622836
3903.0122,0.5606891189100867,2032.1517565054953
3903.912,0.567771237675788,1864.0955988018475
3904.8103,0.5737799360011564,1932.796888891824
3905.7107,0.5783489248217489,1906.5218823342113
3906.6094,0.5814101264333169,1741.5732403339182
3907.508,0.5833317712746072,2003.2753726656629
3908.409,0.5848047793773622,1402.2136748331627
3909.308,0.5865730865430199,2032.3945205961827
3910.2097,0.5891271158117845,2006.5633789012945
3911.1091,0.5924883641271185,1462.5662334978479
3912.011,0.5963439731949114,2098.6078426094814
3912.9111,0.600237108897168,1399.6209135297877
3913.8113,0.6038704670063376,1448.2761108084574
3914.7136,0.6071744197232954,1735.194673759111
3915.6143,0.6102241839484802,1601.2569187729262
3916.517,0.6131780366247964,1597.5337762293755
3917.4182,0.6161197348963319,1825.4258837140048
3918.3215,0.6190118735047945,1683.602591938317
3919.223,0.6216006568814294,1371.9186402201456
3920.1245,0.6235569129098715,1227.1824913044686
3921.0286,0.6246303751165907,1422.2381562531164
3921.9307,0.6247459537117106,1466.927485438804
3922.835,0.6239737189584526,1532.9410961549895
3923.7373,0.6224661236544567,1881.5678253382841
3924.642,0.6204682611893721,1457.6228935538002
3925.5452,0.6183888012930909,1855.75774319055
3926.448,0.6167354664557051,1942.5070711587152
3927.3535,0.6159994401562773,1397.3928520836967
3928.257,0.6164712674960787,1744.1357646632746
3929.1628,0.6180124816848398,1470.3567690858167
3930.0667,0.6199244746587166,1584.2169938836557
