wavl,flux,ivar
3566.9744,0.6531441759732188,2574.1794985086444
3567.795,0.6525165343489986,2483.1252628462944
3568.6177,0.6516591761682308,2814.583216776842
3569.4385,0.6506143623123223,2596.272083007579
3570.2617,0.6491209033994721,2767.6701150046115
3571.083,0.6471101664211351,2931.625777934632
3571.9065,0.6449573993334925,2647.5840082520376
3572.7283,0.6433796166673328,2712.6164302179036
3573.55,0.6430335403174566,2615.266689793203
3574.374,0.6442609717643274,3201.1010306331696
3575.1963,0.6469926336821955,2434.38093247622
3576.0208,0.6508082818733708,1887.9187079859876
3576.8435,0.6549324618878032,3907.0067339674847
3577.6682,0.6584152100973242,2524.677870642487
3578.4915,0.6604022147363443,2808.9968906482677
3579.3145,0.6606386613120889,2654.8332487709886
3580.14,0.6595945935969922,3148.2370110097577
3580.9636,0.6580995326058767,2761.227710554711
3581.7893,0.656690392659163,2064.9311090095443
3582.6133,0.6553485504649448,1718.67792727958
3583.4395,0.6537546029790277,2948.4499740640285
3584.264,0.6518069735846832,3579.531921740568
3585.0884,0.6498320638433849,2490.009907304257
3585.915,0.6484000038845728,3665.471688571944
3586.74,0.6478512009220709,2521.080955368863
3587.5671,0.6478563285125429,2845.4194886980995
3588.3923,0.6474932990770818,2159.8231133844174
3589.22,0.6458849073064514,2215.619575785864
3590.0457,0.6429709654572444,3550.0258961199456
3590.8716,0.6396585610890207,2726.936028430365
3591.6995,0.6372274582748749,2466.6183274788777
3592.526,0.6364401721922065,2631.9476535924186
3593.3542,0.6369609675651996,2706.3940213694123
3594.181,0.6375116915606714,1966.2655886576285
3595.0098,0.6366140782049164,2685.7492437678866
3595.8367,0.6335407109067162,3315.6024435130967
3596.6638,0.6288376915711935,3653.2647645087445
3597.4934,0.6239793623797784,3915.888114307618
3598.3208,0.6204032977099848,3390.447778675571
3599.1506,0.618576645663008,2447.4775334453725
3599.9788,0.6181402213033054,3226.5737806971065
3600.8088,0.6186498579260448,2107.550514165967
3601.6372,0.6201584423018582,3086.560447012565
3602.4678,0.6229765157708538,3342.5492098001505
3603.2964,0.626960239368771,2734.4728476192613
3604.1252,0.6312858139653968,2378.2999242596397
3604.9565,0.6348627950171117,2378.2260542378513
3605.786,0.6369714467797633,1931.4905083777417
3606.6172,0.6376540481022263,2411.7598885412644
3607.447,0.6375380208361531,3221.037186472882
3608.2788,0.6374658754763307,2864.765040994601
3609.109,0.6380677049401461,4247.690424244403
3609.9392,0.6394932874534168,3513.2364031740653
3610.7717,0.6414356399209477,3043.1884339200587
3611.6023,0.6433465530195883,3053.919796006037
3612.435,0.6446851183815899,2864.8874728035466
3613.266,0.6449687753560992,2741.5630263341013
3614.0994,0.6438926161972407,2053.4037727615214
3614.9307,0.6415357766622787,2873.411700864802
3615.7625,0.6384499084254875,3207.066314546843
3616.5962,0.6354168378678465,2393.3011837981776
3617.4282,0.6330032448017057,3148.3273488446625
3618.2625,0.631244707190116,2673.235843094198
3619.0947,0.6298509378685693,2911.7654779385634
3619.9292,0.6285865193431768,2371.318675548743
3620.762,0.6275868842653796,3140.7606191621567
3621.595,0.6272418597068327,2082.701642275005
3622.4302,0.6278258786871325,3189.983301215928
3623.2634,0.6291658650461281,2680.209370941605
3624.0989,0.6307106003798678,2676.0492373005827
3624.9326,0.6318856337207516,3357.7915261390935
3625.7686,0.632446193123158,3038.9462541323337
3626.6028,0.6324886319136825,2299.721763611753
3627.437,0.6322834257984515,2671.4089877741744
3628.2734,0.6320931086659942,3317.0325303852
3629.1082,0.6320947474857321,2766.2931587506228
3629.945,0.6323904053162654,2500.996836108643
3630.78,0.6330757177815902,2489.1600584884595
3631.6174,0.6342626166721279,2972.370845483181
3632.453,0.6359474731927872,3229.7273767729507
3633.2883,0.6379188724160358,2100.256459980259
3634.1262,0.6398550951772982,2286.833821232111
3634.9622,0.6415541724183761,2312.2010011017824
3635.8005,0.6430526497198519,3157.4701915533633
3636.637,0.6443846624475043,2330.9267981192143
3637.4756,0.6454179511713765,2672.069199786142
3638.3123,0.6459650233992339,2257.9126025789096
3639.1492,0.6461050530334272,3215.42211723366
3639.9885,0.6461504887933495,3061.137647815601
3640.826,0.646195154616048,2524.1335448827917
3641.6653,0.6457622404258685,2810.8657908249124
3642.5032,0.6441097383025515,3601.168769061648
3643.343,0.640976912356396,2896.3896159340466
3644.1812,0.6370440048546807,2479.4132753361314
3645.0195,0.6335121988082956,2895.272148220749
3645.86,0.6313045813841418,2817.600153222209
3646.699,0.6305523672602447,2268.1764089457647
3647.5398,0.6306875543923274,3316.742393815549
3648.379,0.6309637611263657,2346.487336068755
3649.2202,0.6308599467810366,2581.118192139272
3650.0596,0.6301810177064667,2846.200846032056
3650.8994,0.6289573323005285,3243.004866115152
3651.7412,0.6273520474319256,3086.2421369227513
3652.5813,0.6256712770721491,3115.236273467619
3653.4236,0.6243228534400546,2800.4681721740412
3654.2642,0.6236942836724084,3159.124805301524
3655.1067,0.6238902645481391,2787.723232930931
3655.9475,0.6246146249173158,2162.753028115631
3656.7886,0.6253279477583015,2758.1200760421893
3657.6318,0.6256120745079969,2426.340183077427
3658.4734,0.6254430209964902,3624.2759054090693
3659.317,0.6251485067077572,2305.7312024119256
3660.1587,0.6250999884249523,3380.7543853109105
3661.003,0.6254047340118297,2808.4965033227004
3661.845,0.6258361257845929,2961.486892212931
3662.6875,0.6260722222993189,2668.4354823449366
3663.532,0.6260447874882878,3054.238761022415
3664.3748,0.626032084013801,2556.4491643585498
3665.2197,0.626243876603023,2847.074747005757
3666.063,0.6261588672492315,2434.2716813881066
3666.9084,0.6241416969513051,2860.1006798193007
3667.752,0.6175321063140606,3019.0524823038545
3668.5977,0.6030007570716391,2695.3258165180437
3669.4417,0.5779596248738447,2537.443544024621
3670.286,0.543117583266477,2976.8742203640604
3671.132,0.505480693366603,2677.788830384417
3671.9768,0.4779694609476052,2837.1996269944216
3672.8235,0.4723997439084991,4519.409267483321
3673.6685,0.49153847641931525,2254.3035860447353
3674.5156,0.5268190264425537,2624.451775997451
3675.3608,0.564264506793724,2670.6270005893903
3676.2063,0.5936593414568592,2907.7275772085723
3677.0542,0.6120754944196101,2712.609585513431
3677.9,0.6217422143821503,2783.2564109382965
3678.748,0.6263574915967522,2463.636210681806
3679.5945,0.6284347291345093,2478.2938173228067
3680.4429,0.6291315638799437,2804.898364923943
3681.2896,0.628815498195649,2802.19196335788
3682.1365,0.6276522311101824,3048.0913623660094
3682.9856,0.6258367188475513,3285.2834043391567
3683.8328,0.623631740002387,3359.0149091072867
3684.6824,0.6212782155753324,2871.9826493561272
3685.53,0.619017681264809,3253.715153745915
3686.38,0.6170655038526329,2508.9274386569614
3687.2278,0.6156226285652862,3146.069412469065
3688.0762,0.6147432054263666,2929.472641286449
3688.9265,0.6143345694164717,2569.0444639914776
3689.7751,0.6143097566371118,2670.196480909096
3690.626,0.614769107077557,2803.196438984803
3691.475,0.615973462655397,4001.644004309481
3692.3264,0.6181170597772037,2975.9175688241867
3693.1758,0.6210865725018888,2446.65785795376
3694.0254,0.6244941284459188,2823.519477587823
3694.8772,0.6278595709544831,2478.744456903287
3695.7273,0.6307851636876199,2476.9351696508434
3696.5793,0.633050226671594,2980.456317505685
3697.43,0.6344675019731587,3155.2491983897207
3698.2825,0.6348554251893485,3058.8477617433205
3699.1333,0.634108514035917,2439.4000977350493
3699.9841,0.6323961304473631,3540.4853543868194
3700.8374,0.6302362761726731,2902.885394475088
3701.6887,0.6283260906684224,4184.463353747142
3702.5425,0.6270786637951645,3115.24476732443
3703.3943,0.6263730785027333,2721.8277446427646
3704.2483,0.6257236668118688,2368.521305586364
3705.1003,0.6248158501288517,2661.2310442336147
3705.9526,0.6237635371271869,3189.0636965930175
3706.8074,0.6228495078873414,2685.7739998681873
3707.66,0.6221008348239019,2885.6748900516463
3708.515,0.6212143908389085,2487.229064261617
3709.3682,0.6199337478933283,3075.016382294365
3710.2234,0.6183466525239533,2739.021465490265
3711.0771,0.6168379365308087,2134.9909045034046
3711.9307,0.6157483018478134,3052.014505821501
3712.7866,0.6151537023202264,2304.618809470236
3713.6409,0.614877467405822,2739.36739932528
3714.4973,0.6146346783442379,2454.4295313507396
3715.3518,0.6142266134257618,2335.7519076139583
3716.2085,0.6137042403745671,2778.1290094895826
3717.0635,0.6134511415370192,3191.577831392503
3717.9185,0.6140285967805568,3890.682930317004
3718.776,0.615825902005305,2663.6826623262787
3719.6313,0.618690896662947,3069.592386742623
3720.489,0.6218997722056419,3072.9287400504186
3721.345,0.6243956722804158,2402.1456921402496
3722.2031,0.6253290862567698,2482.0940829790115
3723.0593,0.6244636695264179,2879.6939082989966
3723.9158,0.6223009487912415,3178.347437335703
3724.7747,0.619702453760409,2796.9134823161407
3725.6316,0.6173476770074383,2890.4009520905097
3726.4905,0.6153830312680055,3186.3319894325223
3727.348,0.6136636330398036,3183.924527377124
3728.2073,0.6121434553016348,2498.2416182326756
3729.065,0.6110819997492954,3130.3156197873636
3729.9229,0.6108049640641939,3053.765064693716
3730.783,0.6113736861625946,3313.092701206128
3731.6414,0.6124389451951889,3104.8950760731486
3732.5017,0.6134335670549074,2730.5423920768862
3733.3604,0.613883611757811,3102.9809093678623
3734.2214,0.6136070185500443,3134.6737928022344
3735.0803,0.6126277017703393,3987.2765926387824
3735.9417,0.6109703727420874,2728.974632069257
3736.8013,0.6086548463570682,3184.377316807747
3737.661,0.6058963715097818,2369.766318938284
3738.5227,0.6032854261824223,3207.9035680976203
3739.3828,0.6016130557292507,3097.9324577788907
3740.245,0.6013659340803261,3624.7223185551575
3741.1055,0.6024510979216123,3358.593610095333
3741.9683,0.6042948711448065,2729.566027993485
3742.829,0.6061330474769042,3346.9416988677376
3743.69,0.6073002503022342,3004.0297768199925
3744.5532,0.6074527320618556,4003.312501657125
3745.4148,0.6068548359519905,3665.7024899759913
3746.2786,0.606448792971845,2852.9460477155126
3747.1404,0.6073777756479071,3166.4340192421378
3748.0044,0.6101581676257137,2774.996470738069
3748.8667,0.6141773798700492,2352.755471248405
3749.729,0.6180799842581984,2996.5799393526736
3750.5938,0.6206476305458148,2898.909627716641
3751.4565,0.6214804432334678,3495.4864409494107
3752.3215,0.6210684372802654,2503.322651495446
3753.1848,0.6202479257560297,3773.088787849414
3754.0503,0.6196367362633474,2836.6065880314986
3754.9138,0.6194475298834845,2464.2721968265078
3755.7776,0.6196497563995359,3238.0957039548753
3756.6438,0.6201926371706618,3105.798220124493
3757.508,0.6210095225941569,2952.112945552085
3758.3745,0.6219109630784625,3440.217997235921
3759.239,0.6225582088776793,2847.118848368322
3760.106,0.6226497211185268,2915.7178562723193
3760.971,0.6220936555714853,2583.599247833717
3761.8362,0.6209981415816129,3088.06052853673
3762.7036,0.6194933651506257,3550.142090364053
3763.5693,0.617636298861379,2854.720699383358
3764.437,0.615416484389297,2847.9561387133385
3765.3032,0.6128341383168461,2616.3710453124954
3766.1714,0.6098590772438562,2816.170187846584
3767.0378,0.6065191200464946,2659.2907923654093
3767.9043,0.6030049336676941,3285.7032767396004
3768.7732,0.5997765975787083,3282.223367126433
3769.6401,0.5974756632385899,2436.747040135056
3770.5095,0.5965926550669151,2878.623000376676
3771.377,0.5972407532055666,4548.446324384389
3772.2466,0.5990392200226744,2901.9605282287966
3773.1145,0.6012439678973688,2476.9370500673513
3773.9824,0.603080828101308,3089.8887834127654
3774.8528,0.6040512819284928,2682.328228111302
3775.721,0.6041065207784062,3209.6843803190545
3776.5918,0.6036800147799584,2582.470778854912
3777.4604,0.6035377232026704,3092.0703583237696
3778.3315,0.6044353039015469,3742.9681246067944
3779.201,0.6066669945852499,4291.634292138564
3780.0703,0.6098456517429643,3344.8310411411676
3780.942,0.6131726133934361,2748.4575020220536
3781.8118,0.616001376750162,3247.080115416437
3782.6838,0.6182931816038206,2329.2452877481323
3783.554,0.6203998629040623,3122.6094573090786
3784.4265,0.6225520239631063,3233.2712249407296
3785.297,0.6244339565203327,2880.899997403009
3786.168,0.6253860680968207,3016.2187698955863
3787.041,0.6248761113867115,2800.3328844633443
3787.912,0.6228439476754265,3236.9041773019608
3788.7856,0.6196290441407162,2663.753322922792
3789.6572,0.615761116102584,3057.84689519871
3790.531,0.611698492740966,3269.9432501744923
3791.403,0.607775753703437,3276.7391717331147
3792.2754,0.6040825035858389,2960.5704593543064
3793.15,0.6005257815103286,3576.5139574217164
3794.0225,0.5969645039224969,3132.972853147307
3794.8972,0.5932416470135582,3388.3404228645118
3795.7703,0.589297166704724,2792.443203738006
3796.6455,0.585189324940218,3075.112927243428
3797.519,0.5812973010662913,4040.4329286280154
3798.3926,0.5782389593150681,3086.4362387904857
3799.2686,0.5766112026765774,3446.408076012298
3800.1426,0.5766389167159867,3288.5318478554796
3801.0188,0.5780651283015394,3599.0840937966464
3801.8933,0.5803930702448229,3415.0006654202307
3802.77,0.5832140340873284,3995.1766060380855
3803.6448,0.5863662012286764,3216.329632131052
3804.522,0.5901564852249273,3686.4507396339436
3805.3972,0.5955387948374314,3229.0586327241285
3806.2727,0.604314743397439,3252.1396141412047
3807.1504,0.6186991399376184,3629.0056139180892
3808.0261,0.6397227954983492,3234.424968354373
3808.9043,0.665402630087175,2633.1775213552187
3809.7805,0.6893784298688327,3070.905396803101
3810.659,0.7035628435060707,3216.5083791143866
3811.5356,0.702681208560122,3457.413801786779
3812.4126,0.6882657484146186,2755.608966925367
3813.2917,0.6674030467451252,3177.577061394132
3814.169,0.6481028138173242,2853.932761213636
3815.0483,0.6346508706295726,2363.1566264398666
3815.926,0.6272186169249199,3384.5605534751626
3816.806,0.6236631412728448,2977.282940299113
3817.684,0.6219402154895003,2294.9279339025725
3818.5623,0.6210275512032976,2537.9549258116062
3819.4429,0.6207736330186969,3536.900516920822
3820.3215,0.6212054039187954,2783.6396778155336
3821.2024,0.6219843084477544,2641.8977276123646
3822.0815,0.6223512304949668,2580.0522951959965
3822.963,0.6215055740037372,2733.193400970136
3823.8423,0.6190323720922012,3537.6927042949596
3824.722,0.6150513328447903,2602.650101871465
3825.604,0.6100653399232736,3173.065287209665
3826.4841,0.6047180515914492,3693.5241362645775
3827.3665,0.5993956364618434,2970.6744009571917
3828.2468,0.5941212557380018,2896.398135190764
3829.1296,0.5884922551427865,3734.556562892631
3830.0105,0.582097648809101,3036.9202255785867
3830.8916,0.5748038214231295,3636.108281463014
3831.7751,0.5669416098465667,3218.7089171729253
3832.6565,0.5591911919683454,3233.9929915976495
3833.5403,0.5521162666094055,4398.765072705993
3834.4224,0.5461295593323592,4248.865982281889
3835.3064,0.5413685891696428,3989.315242683658
3836.1887,0.5378842099890971,4102.483537402073
3837.0713,0.5356836381030531,3447.0302579148206
3837.956,0.5349551054059428,3326.8935827329115
3838.839,0.5361836474938668,4653.450235691747
3839.7244,0.5399713673391987,4376.7066979476685
3840.6077,0.546532864847461,3844.9204681664796
3841.4932,0.5554060192376556,3516.4775818941557
3842.377,0.565457301859523,3982.6876925648257
3843.261,0.5755177609984063,3334.221913785367
3844.1472,0.5847968901301956,2797.8305653481643
3845.0315,0.5929591166204389,2923.7259728456015
3845.9182,0.6001457365237208,4046.151695070622
3846.803,0.6066314604737076,2997.4879077571886
3847.69,0.6128332962777944,3497.5860384291095
3848.5752,0.6190690418267344,2839.7101211961567
3849.4604,0.6255281615015351,3066.496175863413
3850.3481,0.6321352730269552,2793.3060906200576
3851.234,0.6384978764161424,2557.988355716966
3852.122,0.644200510214499,2468.506539863821
3853.0083,0.6489600997686391,2000.0934608214347
3853.8967,0.6528616153060808,2729.858219283228
3854.7832,0.6560792704146361,2430.0411873001294
3855.6702,0.6586462832676178,2724.675598299703
3856.559,0.660367577977137,2019.9869905255287
3857.4463,0.6610657325941242,2389.287683554685
3858.336,0.6608121775909848,2572.202548167711
3859.2234,0.6598797331493909,2982.6203385735007
3860.1135,0.6585971388759633,2439.353525104655
3861.0015,0.6573166509277397,2676.815074214929
3861.8896,0.6563800612001498,2524.0446551445207
3862.7803,0.6560169472710672,2691.3474627891874
3863.6687,0.6561743257220276,2742.346291468234
3864.5598,0.6564694882963225,2481.0157961227223
3865.4487,0.6563327100126046,2454.4753245440465
3866.34,0.6552349398767617,3284.4920614496705
3867.2297,0.6529110380123534,3262.7464917303623
3868.1213,0.6494710828575166,2854.517947706306
3869.0112,0.6453762556992363,2728.7199299956264
3869.9014,0.6411163512332921,2441.304797495701
3870.7937,0.6369553206762901,2624.467406813165
3871.684,0.6329532975677623,2685.069309452705
3872.577,0.6290897054176668,2910.5644935274076
3873.4678,0.6254009661042561,3048.3575869315023
3874.361,0.6217100603890467,2824.812991028022
3875.2524,0.6175430335401856,3078.6914753293613
3876.1438,0.6122781758521273,2999.556943151376
3877.0376,0.6056464683782145,3580.851708830935
3877.9297,0.5980807290328383,3545.867131624895
3878.8237,0.590346422641156,3539.226779113078
3879.716,0.5830493499978545,3193.4383150578647
3880.6108,0.5760984422168797,3381.407081887499
3881.5037,0.5689517761966475,3742.27009446298
3882.3965,0.5609510607542398,2958.5580476670734
3883.2917,0.5517382641630867,3297.63770277641
3884.185,0.5414247941621939,3215.1345061765437
3885.0808,0.5302764753417243,3949.2408295736695
3885.9746,0.5186988319613045,4106.822810635343
3886.8706,0.5069205616205789,4200.6685945774225
3887.765,0.49532562262167534,4411.410494118082
3888.6592,0.48455520788861783,5163.6651764047
3889.556,0.475752051397165,5510.669729746371
3890.4507,0.47042976741591663,5751.347718234228
3891.348,0.4698104578103169,4544.798653482081
3892.243,0.4743598581849882,4884.859107855905
3893.1406,0.48350502480349644,5711.057053241092
3894.0361,0.4956529584511323,5358.346658666848
3894.932,0.5088206890763758,3903.29388846058
3895.83,0.5212633735817334,3973.247585418343
3896.7263,0.531993971847904,3765.287490227234
3897.625,0.5412357939123579,3898.916852429681
3898.5215,0.5499404104565819,3353.674239861288
3899.4207,0.5593227892477487,3681.460086349179
3900.3176,0.5699378844991048,3737.564458089321
3901.2148,0.581496820511624,3587.97348991127
3902.1145,0.5930247971118492,2886.910488895081
3903.0122,0.6034119935280756,3239.513786829255
3903.912,0.6121695490748257,2813.607014422051
3904.8103,0.6193578387697058,2749.051941741358
3905.7107,0.6254494868877168,2598.7223306885544
3906.6094,0.6308680922958948,2579.626353147296
3907.508,0.6360075348163131,2507.6665865985633
3908.409,0.6413068296704392,1987.9162455216317
3909.308,0.6472194695595086,2354.1911862259253
3910.2097,0.6540510146395762,2718.6874903594953
3911.1091,0.6615532995102177,2296.7903270159213
3912.011,0.6690636186327837,2319.185620144388
3912.9111,0.6757444150578276,2329.346156825698
3913.8113,0.6812239193026929,2748.125997708333
3914.7136,0.6858340710478751,2346.8026227527084
3915.6143,0.6904112276243505,2304.6779918986886
3916.517,0.6957654671421549,2750.44635769953
3917.4182,0.7019531248142363,2321.1522979706665
3918.3215,0.7082174607890568,2122.292507660856
3919.223,0.7133992379713525,2024.183201457172
3920.1245,0.7167850675639529,2074.889538109613
3921.0286,0.7184109471023917,2069.327718686822
3921.9307,0.7188503645291341,2400.563010985397
3922.835,0.7187845573054896,2202.058366250257
3923.7373,0.7187007273590184,2293.2137727133213
3924.642,0.7188333833294416,2072.445471244668
3925.5452,0.7191692531518757,2040.607325734266
3926.448,0.7194871284859894,2224.540986147944
3927.3535,0.719520359318698,1872.5296242559405
3928.257,0.7192096182227572,1982.474897812456
3929.1628,0.7188236041158771,2140.823348518727
3930.0667,0.7187788105123656,2224.7214460150117
3930.9731,0.7192753813061739,1949.2192028856496
3931.8774,0.7200800977467287,2198.028996735813
