wavl,flux,ivar
3566.9744,0.533502627992599,1994.6521502490182
3567.795,0.5323902865012206,2050.5782407931483
3568.6177,0.5298838007611183,1681.42838928602
3569.4385,0.5257666269352167,1720.0199966591376
3570.2617,0.5204712140421239,1543.823289038439
3571.083,0.5148601318965018,1866.0112993578025
3571.9065,0.5096864455331063,2156.7798525383987
3572.7283,0.5055465199342882,2176.2951305167194
3573.55,0.5028960292944435,2085.8445601776416
3574.374,0.5021483099372418,2542.139310652918
3575.1963,0.503509265320571,2586.3039597842053
3576.0208,0.5067477125452868,1851.870048501145
3576.8435,0.5111151978980034,1753.9599273374392
3577.6682,0.5156178499936633,2458.0811309177548
3578.4915,0.5193207805352918,1885.3489092862715
3579.3145,0.5216954558275956,1957.048808364618
3580.14,0.52264837958321,1650.5229544173524
3580.9636,0.5224133924687296,1603.3601216526758
3581.7893,0.5214176221577189,1770.6882640010544
3582.6133,0.5201379818179338,3333.118093028129
3583.4395,0.5189553626861495,1769.486013079367
3584.264,0.518088854144711,2103.2317662476266
3585.0884,0.5176098618832109,2388.310452406376
3585.915,0.5175948862213855,2193.707772387592
3586.74,0.5182049725302486,2601.662514976786
3587.5671,0.5195631158237889,2908.1541475514023
3588.3923,0.5215122477027003,2073.22393150974
3589.22,0.5235912526349744,3108.2878225017585
3590.0457,0.5252182603046562,2489.340676284168
3590.8716,0.5260038144192773,1719.7721425042764
3591.6995,0.5258410432256768,1704.0030864690464
3592.526,0.5248694219832809,2064.476544752821
3593.3542,0.5233695640902785,2641.5591474753664
3594.181,0.5216898692798732,1891.7132973443795
3595.0098,0.5201639758116131,1953.5142385476752
3595.8367,0.5190922019294479,2479.0641429111015
3596.6638,0.5186581337574855,2408.9731968168117
3597.4934,0.5189127909361563,1611.1782503114532
3598.3208,0.5197852057343554,2066.3079904424994
3599.1506,0.5210840432037132,1942.186628706605
3599.9788,0.5223860907210882,3292.0098956871952
3600.8088,0.5230633337397494,2108.3276050874956
3601.6372,0.522601363958166,1374.0205508917386
3602.4678,0.5210481037353385,2143.5161884819595
3603.2964,0.5190225474366963,3011.5244414741705
3604.1252,0.5171473255463438,2563.644540465174
3604.9565,0.5155659788118225,1875.5438824586354
3605.786,0.5140497790222224,2368.207377618587
3606.6172,0.5124473258859372,1666.333436212814
3607.447,0.5109529679996606,2743.6038547561543
3608.2788,0.5098409091703109,2049.5669590476864
3609.109,0.5091266301484596,2209.6804552722156
3609.9392,0.5085295812625518,2084.0747396243096
3610.7717,0.5078506876076656,1915.2181790567968
3611.6023,0.5073208759537442,2614.0615067696554
3612.435,0.5074726505710513,2133.531052721262
3613.266,0.5085982211996063,3026.759825742839
3614.0994,0.5103184707862588,1873.3925114578433
3614.9307,0.5117318578828254,2404.8384826764113
3615.7625,0.5121220828956642,1956.7734797294675
3616.5962,0.5115419264996638,2409.790639105926
3617.4282,0.5108234717734726,3032.574976517708
3618.2625,0.5109421226993812,2755.511007343069
3619.0947,0.5122880354427318,1925.1764015540202
3619.9292,0.5144254959404925,1876.9375772521214
3620.762,0.5164521108462481,1886.5389146316388
3621.595,0.5176719550964383,2030.9043360480312
3622.4302,0.518000979071849,1869.2284138483092
3623.2634,0.5179328079303044,2016.7527538230972
3624.0989,0.5180946320797137,1964.8741845080153
3624.9326,0.5187081475247929,2292.2223481040614
3625.7686,0.5194362581626332,1639.1037184606726
3626.6028,0.519801064794168,2102.786901607885
3627.437,0.5198316505859066,1980.2139902490758
3628.2734,0.5202190863673253,1821.100486975432
3629.1082,0.5217386582235518,3108.7735050856086
3629.945,0.5244460248067792,1942.5467995547142
3630.78,0.5273811715585291,2430.4295930765443
3631.6174,0.5291966565481396,1523.1239486121285
3632.453,0.5290963469566399,1751.602225122644
3633.2883,0.5274821968382923,1738.849966516882
3634.1262,0.525708456519183,1813.3892161628814
3634.9622,0.5252552116161779,2633.8328691052284
3635.8005,0.5268332405901073,2081.4019149169076
3636.637,0.5300616526121571,1715.445876404891
3637.4756,0.5338050789059465,1710.924954538509
3638.3123,0.5367136993386632,1410.2991034707666
3639.1492,0.5377926044148815,1848.3566775792062
3639.9885,0.5366863277543328,1570.3714967355138
3640.826,0.5338402757060179,2193.3242564842167
3641.6653,0.5302813173290696,2123.7217755682655
3642.5032,0.527121673107047,1804.9043189374463
3643.343,0.5249734526175563,1906.5457477570624
3644.1812,0.5238750439379287,2045.2434998320364
3645.0195,0.5235945908427257,1926.1887845477809
3645.86,0.5240748803560031,1847.9146971190914
3646.699,0.5255235192617888,2233.705759754971
3647.5398,0.5281488116210058,1718.2985911723833
3648.379,0.5317741412394026,1812.298999607298
3649.2202,0.5357816730034684,2268.4696379060942
3650.0596,0.5392699998554621,2045.6286626474905
3650.8994,0.541456162995651,2181.210906532723
3651.7412,0.541869109835779,1810.3284688594106
3652.5813,0.5404549205936285,1822.1153626238502
3653.4236,0.5375512489481951,2154.592034057062
3654.2642,0.5338205915963808,1979.0265288849164
3655.1067,0.5300570349252606,2497.2087999490413
3655.9475,0.5270481350194781,2457.5185169290617
3656.7886,0.5253067690392773,1342.594026281278
3657.6318,0.5249399289274436,3126.766231099279
3658.4734,0.5255951073485102,2574.580015355473
3659.317,0.5265962910923089,2091.182372698688
3660.1587,0.5272444604885529,1750.5063654627988
3661.003,0.5271495997174842,1607.6694559397267
3661.845,0.5263629874059934,3501.6702202823303
3662.6875,0.5252815282640424,1816.3877474842886
3663.532,0.5244400751128065,2144.7619960282823
3664.3748,0.524304276959806,1877.2604972622637
3665.2197,0.5250480088008577,2970.025218954141
3666.063,0.5264093720221098,1830.347126433188
3666.9084,0.5277805953949155,1949.1088442292087
3667.752,0.5285123888859425,2736.1026887006296
3668.5977,0.5282837849465991,2327.5015413638343
3669.4417,0.52720649018072,2202.5648568619454
3670.286,0.5256494048876789,2974.839432155947
3671.132,0.5239489861478205,1828.795339835838
3671.9768,0.522286312551077,2095.427998574035
3672.8235,0.5207581661656676,2019.6795035230878
3673.6685,0.5195431393403699,2246.5411495109406
3674.5156,0.5188103625048691,2913.3558263850105
3675.3608,0.5184848779660487,2348.378931313669
3676.2063,0.5181038437386118,1785.9955465873345
3677.0542,0.5170486224310042,1638.9781557441356
3677.9,0.5150050911901685,2563.685579422039
3678.748,0.5122562900703309,2173.784636417566
3679.5945,0.5096787734176391,2090.466114677553
3680.4429,0.5082936998546183,1685.135772681721
3681.2896,0.5087028956155609,1946.984959797015
3682.1365,0.5106062704423924,1408.6863122974087
3682.9856,0.512893191345791,1901.7032159046753
3683.8328,0.5142756426148557,1756.9580801004884
3684.6824,0.5141089754561025,2353.7397742167304
3685.53,0.5127051363150573,1717.4895488557142
3686.38,0.5110714168507442,2084.408769819824
3687.2278,0.5103724434293715,2795.5647973078744
3688.0762,0.511385256419131,2797.490202576353
3688.9265,0.5141901354862907,3737.894006138011
3689.7751,0.5180640323417325,1315.9996667872508
3690.626,0.5217924493923652,2243.12790275372
3691.475,0.5241597622124701,1965.858513046248
3692.3264,0.5245582623148582,1594.1220698994969
3693.1758,0.523148774304332,2196.0989008515244
3694.0254,0.5206059549031847,1661.8516631294026
3694.8772,0.5176805682785685,1554.167285841761
3695.7273,0.5150452684536156,2185.8673165658674
3696.5793,0.5133100584019986,1633.732476516661
3697.43,0.513037376596888,1917.460863054785
3698.2825,0.5144648137888472,2755.8652428846176
3699.1333,0.5173132522380808,1768.981538200087
3699.9841,0.5209591204740164,2486.392129473384
3700.8374,0.5247986478560951,2503.579907549755
3701.6887,0.5283756014522439,1909.6144035802436
3702.5425,0.5313145059124948,2121.1949092910304
3703.3943,0.5331130838304351,1854.021871587558
3704.2483,0.533338523712577,2097.236163581473
3705.1003,0.5319011789903314,1849.5328810167734
3705.9526,0.5291774564189455,2026.2793519674485
3706.8074,0.5257851806053094,2527.2434701808947
3707.66,0.5223474176326319,2617.613991769744
3708.515,0.5193356444138163,1703.4399551870226
3709.3682,0.5171506713900941,2620.4873819862546
3710.2234,0.5159899823273261,1753.5259857768228
3711.0771,0.5157870719473251,2200.099379071879
3711.9307,0.5162765531330182,2968.119648513548
3712.7866,0.5172223768265487,3333.0478416327924
3713.6409,0.518480042184544,1901.3959520550354
3714.4973,0.5199068545457338,3421.963676311863
3715.3518,0.5212800093678079,2182.402487563595
3716.2085,0.5224246377201897,1982.8422476304756
3717.0635,0.5232791819256144,2316.4924674991885
3717.9185,0.5238348822673095,1710.5967348592742
3718.776,0.5239913703569438,2869.080964419204
3719.6313,0.5235664734548777,1849.5606574186731
3720.489,0.5224441253211377,1773.756220059917
3721.345,0.5207244056360069,1625.299043067792
3722.2031,0.5187540463640954,2100.1469266338186
3723.0593,0.5171045443828246,1942.9007737389886
3723.9158,0.5163721797405876,1998.195075112007
3724.7747,0.5169498243673847,1552.1538974884934
3725.6316,0.5188264988556698,2217.882394952744
3726.4905,0.5216197816899479,1749.8878317375943
3727.348,0.5247261319615911,2418.6411719190123
3728.2073,0.5275387158698807,1746.528824095244
3729.065,0.5295257314969192,1474.3428928237906
3729.9229,0.5303975693576236,1929.3341133333472
3730.783,0.5302010551244942,2164.13827662504
3731.6414,0.5293165525704049,2784.528504036793
3732.5017,0.5282278917403309,1914.6290284701547
3733.3604,0.5272705795726158,2633.5602009206827
3734.2214,0.5265730018137388,1868.491050221218
3735.0803,0.5262615351244403,1831.28123554868
3735.9417,0.5265870261415988,2241.241415187229
3736.8013,0.52777263547013,2252.8585973127624
3737.661,0.5296577593618579,1905.8933785170439
3738.5227,0.5314975930238254,2265.6995827822584
3739.3828,0.5321657390963602,1719.4047138536446
3740.245,0.5307890331468946,1795.0991613336384
3741.1055,0.5273911760568251,1579.5730434419195
3741.9683,0.5230515665917099,1903.3689827085198
3742.829,0.5194147771075446,2093.670290589974
3743.69,0.5176253807531068,2666.918321314007
3744.5532,0.5176858325510593,1851.2826567472164
3745.4148,0.5186173238078695,1706.5392838424036
3746.2786,0.5192916365821415,1817.7607488822564
3747.1404,0.5191685313935349,1798.7924864663416
3748.0044,0.5184308659214049,1362.8956855409529
3748.8667,0.5175991123421952,2015.9653776566852
3749.729,0.5170684096149998,2039.605687719742
3750.5938,0.5169223030036662,2127.96052990173
3751.4565,0.5170256488140675,2306.700136668483
3752.3215,0.5172111385496191,1578.135662990609
3753.1848,0.5173904601241892,2296.9849310384448
3754.0503,0.5175765872171753,2417.684630062869
3754.9138,0.5178576700310225,1936.2472553719444
3755.7776,0.518316963815509,1565.2708141288126
3756.6438,0.5189040733279286,2579.309022888131
3757.508,0.5194134364838398,2589.5344990445105
3758.3745,0.5197049446523472,2099.3765490753804
3759.239,0.5199418870437954,2350.6769277391386
3760.106,0.520555596950539,2154.2409814974862
3760.971,0.5218829059415397,1647.6659290745426
3761.8362,0.523859365283883,2505.110047045727
3762.7036,0.5260353577308863,2462.6992320853574
3763.5693,0.5278408526249805,2081.6746734586714
3764.437,0.5289021552003784,1932.8130416265117
3765.3032,0.5291283756065336,1972.5317194607164
3766.1714,0.5286759295056525,2126.6580270285044
3767.0378,0.5278080391168282,2172.478491459703
3767.9043,0.5267519904836836,1519.9075395136138
3768.7732,0.5256192022169368,1909.5998465115022
3769.6401,0.5244266476920074,2053.1445344220233
3770.5095,0.5231532138510059,2508.920915243574
3771.377,0.52184855163777,2248.660623760987
3772.2466,0.5206301696217892,1894.3157640329252
3773.1145,0.5196378836141669,2840.220942544184
3773.9824,0.5189136244251042,2442.6301797831607
3774.8528,0.5183810895859453,2103.773787266826
3775.721,0.5179054729678465,1785.7017909531571
3776.5918,0.5173495114129523,1541.095656569076
3777.4604,0.5166347537048402,3460.649326758879
3778.3315,0.5158225725042126,1795.9461709947923
3779.201,0.5152313187022255,2209.80904026838
3780.0703,0.5153434308395355,3081.735241615721
3780.942,0.5164804106425324,1865.3502374019508
3781.8118,0.5184526465991596,2384.6458388096457
3782.6838,0.5206138706155558,1814.1630661061965
3783.554,0.5222901557356618,2233.352609909942
3784.4265,0.523307932737987,2557.1445875190025
3785.297,0.5240190380411734,1820.5252812749072
3786.168,0.5248880868423738,1917.9618243179605
3787.041,0.5260110602759778,1979.402950955644
3787.912,0.5270482685417069,1531.1875752434314
3788.7856,0.5275536817789481,1862.7729052330637
3789.6572,0.5272463612674453,2005.7335409054624
3790.531,0.5260765675615353,2123.512551462843
3791.403,0.524188204093847,1904.1510693196653
3792.2754,0.5218672297917559,2519.4489360160273
3793.15,0.5194531075076371,1667.499253024822
3794.0225,0.5172172254890446,2410.6666514960925
3794.8972,0.5152843756174567,2052.962860781996
3795.7703,0.5137918800431271,2164.9591080028363
3796.6455,0.512952800044148,2642.1977342502832
3797.519,0.5129802815753239,2064.845915621138
3798.3926,0.5138638767008986,1771.196696975926
3799.2686,0.5153177770162174,1809.7259526742985
3800.1426,0.5169140483583387,2272.679713930258
3801.0188,0.5183070229037969,1937.9834920385285
3801.8933,0.5192890265249499,1790.942077400746
3802.77,0.5198137577774575,1317.1109399731
3803.6448,0.5199972518954528,1932.0529193485709
3804.522,0.5201394731693165,1955.758896769447
3805.3972,0.5206229219163225,2751.9952864742545
3806.2727,0.5217286204100741,2863.5359965504763
3807.1504,0.5235097655075833,1649.3502856988193
3808.0261,0.5258073055315564,2466.986883554664
3808.9043,0.5284063133059805,2324.6906617615
3809.7805,0.5310440007343163,2202.0244232665445
3810.659,0.5334103349787446,1704.8718837854005
3811.5356,0.5350987000931399,1696.3541891452987
3812.4126,0.5357855092016717,2340.3954786713166
3813.2917,0.5353842819945175,1733.9760306282117
3814.169,0.5341070668877747,1634.5906809596372
3815.0483,0.5323595095640801,1928.7100419684732
3815.926,0.5306325151345646,1546.507250857205
3816.806,0.5293550579366458,2261.606960165512
3817.684,0.52877330923973,2446.188455434182
3818.5623,0.5288230083934362,2208.8077564270434
3819.4429,0.5292114105229961,1644.4727979737445
3820.3215,0.5296112879471131,2013.5878731120042
3821.2024,0.5298012941676886,2285.0758212205333
3822.0815,0.5296404824417397,1806.0191474433984
3822.963,0.529012008243204,2160.675104143235
3823.8423,0.5278137532139608,1799.374655726549
3824.722,0.5259304343472824,2484.106233053586
3825.604,0.5231980999063724,1619.2091830013057
3826.4841,0.5194897452976148,2035.0987167530593
3827.3665,0.5148334700616022,2014.6000428557377
3828.2468,0.5095930708343165,1703.2239762080414
3829.1296,0.504252542230456,2050.286809625736
3830.0105,0.4992088052937972,3225.1676512282907
3830.8916,0.4944881354791109,1838.5321819687929
3831.7751,0.4899273055642302,2422.1635605699803
3832.6565,0.4855787367049506,1856.0981816087854
3833.5403,0.4818982360419655,2343.0961716972556
3834.4224,0.47971179309963596,2507.4106164707687
3835.3064,0.4796729035602609,2281.3438309701264
3836.1887,0.4817870194103164,3885.3123404045486
3837.0713,0.48526878241244786,1865.057195343638
3837.956,0.48895196616194897,2479.05815834538
3838.839,0.49193227667745204,2215.576743344849
3839.7244,0.49409104681513877,2013.0896677663904
3840.6077,0.49597500316972853,2164.156709130633
3841.4932,0.4983533594459266,2640.612698442707
3842.377,0.5016802809938342,2701.47618638548
3843.261,0.5059487219563779,2274.2724836961675
3844.1472,0.5108257732596191,2573.3085998010106
3845.0315,0.5158728230409305,1686.9109012488404
3845.9182,0.5208039406954396,2376.129271972996
3846.803,0.5254251355852377,1963.5125201657127
3847.69,0.5296865674102884,1833.4699900696712
3848.5752,0.5335417264385403,2148.833515098021
3849.4604,0.5369722240849634,1514.9929745124393
3850.3481,0.5399493769250778,1969.4930067536118
3851.234,0.5424540238618025,1991.7924163520242
3852.122,0.5445772474678656,2054.186925266994
3853.0083,0.5464525214805696,2103.527988062017
3853.8967,0.5482095566678733,1675.360501305489
3854.7832,0.5498612834583033,1608.8525034571567
3855.6702,0.5513284205945894,2398.3924898080286
3856.559,0.5524535142132397,1663.825714882589
3857.4463,0.553038202571444,1917.3448920129322
3858.336,0.5529481013508288,1615.709519399021
3859.2234,0.5522543397585395,1722.9272308868487
3860.1135,0.55130043407285,1797.4411722575103
3861.0015,0.5505564921242248,1544.0924298136567
3861.8896,0.5503030400747287,1842.3393876176553
3862.7803,0.5504789712701317,1874.252559912608
3863.6687,0.550793065249514,1731.0935598801861
3864.5598,0.5509488109463145,1831.1156778215002
3865.4487,0.5507067207744679,1477.1406817413992
3866.34,0.5498153093748476,1392.2613423126597
3867.2297,0.5480460305931489,1569.640288616179
3868.1213,0.5453503090461405,1654.4270571345185
3869.0112,0.5419741603268781,1895.2793726682587
3869.9014,0.5382701722842786,1836.2588031855796
3870.7937,0.5344889100223965,1750.6149653521131
3871.684,0.530749847148223,2162.964847153944
3872.577,0.5270873933514356,2050.8557698213885
3873.4678,0.5236315704907213,2210.468662166052
3874.361,0.5205342889119755,1768.6722818075627
3875.2524,0.5179181087739018,1872.634039655992
3876.1438,0.5156477791821313,2364.07734631127
3877.0376,0.5132504416726297,2135.254507218836
3877.9297,0.5100525956426928,1633.9877089859358
3878.8237,0.5054921148541734,1693.366544007951
3879.716,0.49952435762070385,2418.6931654395935
3880.6108,0.4925740600090312,1723.38964370209
3881.5037,0.4853118041784467,3001.6281227
3882.3965,0.4781499826456433,2434.4076992406312
3883.2917,0.47118228479239405,1943.0450393818558
3884.185,0.46444376760242995,2265.5157584436315
3885.0808,0.4579953545895257,2625.2772372634463
3885.9746,0.45202612610958715,3239.5063703551245
3886.8706,0.4465788859457235,2399.363434839977
3887.765,0.4416534275193888,2830.8737034157243
3888.6592,0.4373092863961003,3143.4243040820174
3889.556,0.43388851040566995,3184.065483732758
3890.4507,0.4320184031268244,2960.1806821805485
3891.348,0.4323188214575644,2814.129095181501
3892.243,0.43510862820389545,3063.4144860882816
3893.1406,0.4402173576309368,2927.3019170193747
3894.0361,0.4469910845959165,3074.054045327511
3894.932,0.45466348426804415,2188.420512808915
3895.83,0.4626111203332274,3021.83235644339
3896.7263,0.4703858760265479,2123.394442358976
3897.625,0.477808586453816,3007.496091499434
3898.5215,0.4847844001615744,2137.4725247196193
3899.4207,0.49144224671249076,2063.806956977862
3900.3176,0.49790493753438764,1982.7600384380846
3901.2148,0.5042985638559506,1738.452103226221
3902.1145,0.5106540838679335,2209.154439047216
3903.0122,0.5169216175737121,1763.4774150237188
3903.912,0.5231516949556133,2017.4394003571463
3904.8103,0.5294094302434738,1798.934606536722
3905.7107,0.5358349868145443,1662.4470526135947
3906.6094,0.5423786160002818,1736.7234713276766
3907.508,0.5487420315334479,1591.6936422554315
3908.409,0.5544095910332197,1467.9714435788044
3909.308,0.5589585377591348,2007.5811576383041
3910.2097,0.5624879287042187,1690.3688009840876
3911.1091,0.5655249733867256,1646.5209478336815
3912.011,0.5687276769396323,1626.0351839740717
3912.9111,0.5724369008455102,1905.3633357414114
3913.8113,0.57666022681936,1482.7346013463923
3914.7136,0.5812587685209819,1802.1037951985577
3915.6143,0.5860866260966894,1756.484741503711
3916.517,0.5910444786763744,1691.7492132078382
3917.4182,0.5958851252246304,1515.1489100865042
3918.3215,0.6002714563197757,1358.3297063465843
3919.223,0.6038088985675146,1248.7913088933478
3920.1245,0.6062911299363277,1469.2137079078288
3921.0286,0.6077660149072182,1842.109503847395
3921.9307,0.608483571811668,1686.272786824563
3922.835,0.6087297801693273,1646.8009672458784
3923.7373,0.6086520922031768,1807.7615438022506
3924.642,0.6082930104621737,1469.9337505203819
3925.5452,0.6077500524011504,1802.5486921490394
3926.448,0.6072379623297979,1643.3280668431753
3927.3535,0.6069448269546543,1368.0567190758786
3928.257,0.6068251282481596,1325.3056042154328
3929.1628,0.6065533392602116,1624.1205465991077
3930.0667,0.60571708980406,1472.7348979830565
3930.9731,0.6040728834914529,1510.132726517509
