wavl,flux,ivar
3566.9744,2.5619927861821346,182.96109682294394
3567.795,2.555346826471702,162.7375948853952
3568.6177,2.5483481020308254,164.5010243780132
3569.4385,2.5419135431411557,163.4097908650265
3570.2617,2.5364179361760795,167.00761298638537
3571.083,2.53205068577859,140.95898216213618
3571.9065,2.5292620607720293,167.81459531671024
3572.7283,2.528898638212007,171.05543925111053
3573.55,2.53133612059865,198.35288230629317
3574.374,2.5355965087831756,174.7861060162035
3575.1963,2.5394394105270672,162.73748968242978
3576.0208,2.540914549458311,171.53087538739695
3576.8435,2.539874480601601,159.7994169478452
3577.6682,2.538093757078459,166.08510653957285
3578.4915,2.537755703904547,175.47855531134638
3579.3145,2.5397169927953533,159.0514203154815
3580.14,2.543039642063165,165.92057360158435
3580.9636,2.5458291036127267,163.1909898518893
3581.7893,2.546624975303277,164.00600942176195
3582.6133,2.545061170051625,176.89814807116346
3583.4395,2.5415078763446983,153.01296944679288
3584.264,2.536237278778907,171.44423744374183
3585.0884,2.52905074858949,183.73332371487427
3585.915,2.519822723351322,152.87474774495888
3586.74,2.5092423841793168,167.1328626502151
3587.5671,2.4985786503685956,187.6459979543045
3588.3923,2.4892279860263278,162.77319754215347
3589.22,2.4820496480264898,194.83359603249238
3590.0457,2.477497213475797,187.68303054497864
3590.8716,2.4755297058793437,145.17389715317722
3591.6995,2.4757106637352697,147.29416264747258
3592.526,2.4772272268226088,172.14690384391614
3593.3542,2.4789394724831397,159.11285555567815
3594.181,2.479338956109208,151.62431568655992
3595.0098,2.4767364345212397,152.7415705567851
3595.8367,2.469967397673121,160.7510765885582
3596.6638,2.459260569765941,177.09559890442065
3597.4934,2.446519532183273,187.72874079736664
3598.3208,2.4347170544954,189.7681477620423
3599.1506,2.426304278089115,162.2114909714463
3599.9788,2.422423738116375,191.81842727351633
3600.8088,2.422600027388117,177.95549676956134
3601.6372,2.4253437740469357,179.49900268730613
3602.4678,2.4287542410968204,178.08001038153137
3603.2964,2.430992687064865,166.7523430810154
3604.1252,2.430953483936254,179.59567837265436
3604.9565,2.4288683230253634,171.6306066351077
3605.786,2.4263693769015906,166.56161844135164
3606.6172,2.4254030508907922,190.65063724436908
3607.447,2.426776158390274,188.03358215452158
3608.2788,2.429501301113483,220.12627450193204
3609.109,2.4315663693662035,172.3797302546617
3609.9392,2.431455319265299,201.00476657612194
3610.7717,2.4290417801555177,187.5746565656668
3611.6023,2.4254254654229985,177.30654597684995
3612.435,2.4220195532784774,177.6609043525484
3613.266,2.4198544805827806,206.0197183063407
3614.0994,2.4192106459327256,182.27472264223297
3614.9307,2.4196558662362335,182.91431514707426
3615.7625,2.4202059922815655,203.18493341972808
3616.5962,2.4196632106640017,207.8334245018323
3617.4282,2.4170302177908938,178.8982834985847
3618.2625,2.4118130565004066,166.04378407689848
3619.0947,2.4042315874712847,170.14445094615672
3619.9292,2.3951204516542974,183.0277543590287
3620.762,2.3858732370657694,173.42132572387604
3621.595,2.377846869438916,167.29454036835085
3622.4302,2.371924271303578,179.73166938407755
3623.2634,2.368336928702874,196.75631606359437
3624.0989,2.366719020849721,191.6621636817084
3624.9326,2.366321554808218,215.91340115592809
3625.7686,2.3659609404206297,199.86335448331224
3626.6028,2.3642511762830565,174.45652152635938
3627.437,2.3602785797534795,179.85102509845686
3628.2734,2.3542388484725025,216.42685214184849
3629.1082,2.3473853009616867,196.52049857848107
3629.945,2.3410160187674434,200.54535200879124
3630.78,2.3356474607474156,196.67460736493493
3631.6174,2.3306343263280476,185.30585323220015
3632.453,2.3247559812829275,188.9846377166221
3633.2883,2.3169193458919417,224.09274357942417
3634.1262,2.3068962218284415,203.78238484022927
3634.9622,2.2957985691975207,198.79190313532627
3635.8005,2.2856233453955532,200.00538949459946
3636.637,2.278435898253586,218.16577013039918
3637.4756,2.274900357823578,215.55458993750537
3638.3123,2.2739173368347947,204.49257761063282
3639.1492,2.2733902273993114,206.35864099964746
3639.9885,2.27173413277511,209.42915603888008
3640.826,2.2687008241280195,232.35031564374003
3641.6653,2.265006113007301,211.5143439734744
3642.5032,2.2614888900029517,181.095781612905
3643.343,2.258432781659262,183.98357215277179
3644.1812,2.255537314734727,220.46258938770018
3645.0195,2.252167897121297,216.84399371868307
3645.86,2.247792531821334,194.53638025855338
3646.699,2.242341060673446,215.10203928564448
3647.5398,2.2362228945828324,205.7806646331449
3648.379,2.2302736869970468,211.44874734972342
3649.2202,2.2253402640165008,230.55611817995992
3650.0596,2.2219533772329974,209.12089792991412
3650.8994,2.2198317386816697,215.33402492718722
3651.7412,2.2178500107612433,242.79737447886566
3652.5813,2.2145299412884407,201.4971441197351
3653.4236,2.208930495256261,201.86897373675802
3654.2642,2.2015229834393657,281.2466752625866
3655.1067,2.194166755282392,253.32296458740055
3655.9475,2.189339282903593,193.93934517083775
3656.7886,2.1886525558740835,234.80849638957784
3657.6318,2.1920187322922837,216.78690438712968
3658.4734,2.197759762391272,204.05922924400025
3659.317,2.2036644036903845,224.5562039173942
3660.1587,2.2078867418180543,226.7760459553346
3661.003,2.209523084229532,249.9419289471179
3661.845,2.208710451042288,188.02817954897162
3662.6875,2.2066793679754357,217.18207281139956
3663.532,2.2053732201289895,223.4308554368887
3664.3748,2.2065321238770323,219.47141773807738
3665.2197,2.210591231709084,201.4600776363157
3666.063,2.2162487369890163,207.733602298889
3666.9084,2.221260308395772,221.3630083703904
3667.752,2.2237019353844794,194.63227788631258
3668.5977,2.222983251657851,212.3276331861865
3669.4417,2.219774067943012,179.32411352209058
3670.286,2.215309277973967,194.22515779880877
3671.132,2.2106138153727226,212.8202905068701
3671.9768,2.206032761457535,249.75713519188463
3672.8235,2.2010312598155855,247.73680512868623
3673.6685,2.1946622889436136,203.26550697872574
3674.5156,2.1863090487193233,197.06228869191023
3675.3608,2.176553499246022,203.13498268172657
3676.2063,2.1670124413694496,243.1362164393808
3677.0542,2.159500109066614,260.0943031827832
3677.9,2.1549762453693457,212.63625197340005
3678.748,2.1529645481553454,213.26056288315692
3679.5945,2.152115723929038,224.68645730472116
3680.4429,2.1510278799823044,254.664710996757
3681.2896,2.148949539394665,230.37836253825142
3682.1365,2.146003892534359,182.23707065266927
3682.9856,2.1430647347439233,234.71501480578164
3683.8328,2.141288851367321,225.53319174658975
3684.6824,2.1412793144247364,216.49867182630953
3685.53,2.1424918335305523,262.42301209636366
3686.38,2.1434050110822795,200.21454679477378
3687.2278,2.1425595726586253,235.1119960615939
3688.0762,2.1396810471901193,194.4070897168643
3688.9265,2.135848878064201,263.8185650157409
3689.7751,2.13263557312954,290.88281981030957
3690.626,2.130902458676236,255.05134869689496
3691.475,2.130405925797508,237.74565048049578
3692.3264,2.1301933234522266,223.520601124475
3693.1758,2.1293125601169085,265.98493162451683
3694.0254,2.1271378047098235,225.31946260241833
3694.8772,2.1232992683785548,201.06454487538304
3695.7273,2.11768666471322,243.38482302796203
3696.5793,2.110625186239907,260.7567658438173
3697.43,2.1032093913681833,236.17744672913196
3698.2825,2.096934794079273,271.8970582105146
3699.1333,2.0929886773157484,234.0003767034256
3699.9841,2.0914361973707374,225.82907324202722
3700.8374,2.0913226218075978,233.64495817614514
3701.6887,2.0913382004797727,233.6070336512749
3702.5425,2.090422739740915,232.21356063133135
3703.3943,2.0878999813295223,212.0997346933246
3704.2483,2.0833911877042213,262.018777741643
3705.1003,2.077036753157675,243.75385297091898
3705.9526,2.0696900963961125,238.00842055104886
3706.8074,2.062809963004829,245.6535996981359
3707.66,2.0578532073049725,245.017685780681
3708.515,2.0554032920039433,247.12311492884945
3709.3682,2.0550110931878565,283.4103547022315
3710.2234,2.0555250473431794,243.506251780949
3711.0771,2.055802427586865,249.63327146567664
3711.9307,2.0551949483175944,266.54778122407333
3712.7866,2.0535567803873773,238.63291434696654
3713.6409,2.050966424265833,273.3839752901256
3714.4973,2.047439731701154,258.34676562172723
3715.3518,2.0429972661816813,220.6171194435316
3716.2085,2.0378386104372184,234.6574479552702
3717.0635,2.032617226813172,312.2697732856897
3717.9185,2.028238614668325,273.8283788584118
3718.776,2.0254759508474316,286.3205984678711
3719.6313,2.0245857300665864,245.9765843517133
3720.489,2.025181715054789,254.64599423784273
3721.345,2.026466256816671,293.4957087213677
3722.2031,2.027509528329339,266.1016326274778
3723.0593,2.027489129083941,243.23527577740649
3723.9158,2.025957100247506,267.56999859962843
3724.7747,2.0229609793426,252.27536476181382
3725.6316,2.018944656694739,273.39991839169267
3726.4905,2.0143580152489124,262.57341634680125
3727.348,2.0095387224861136,236.23566962247148
3728.2073,2.0047532404324677,274.1909516245229
3729.065,2.0004094366324914,269.55132745918394
3729.9229,1.9968668343120088,259.8365566988257
3730.783,1.9942274079504758,260.04196848114935
3731.6414,1.9922780520607564,261.01367960872267
3732.5017,1.9906020622573461,254.73366305663106
3733.3604,1.9888103214212847,244.55762777280566
3734.2214,1.9866549139504224,258.033608077546
3735.0803,1.9841333350538783,259.34774204643054
3735.9417,1.981330758457956,279.87474326734826
3736.8013,1.978238007393213,268.3795801410791
3737.661,1.9746467585769696,323.60265722222005
3738.5227,1.9704119477314366,277.3593746319149
3739.3828,1.9657542640759897,284.34368233376443
3740.245,1.961104543084021,292.1685198220621
3741.1055,1.9567968582973616,316.7686283013313
3741.9683,1.952716129073983,258.32745818672385
3742.829,1.948523149256147,237.2058528589195
3743.69,1.9439444823777277,240.9993130060691
3744.5532,1.9390075774721498,278.59973401982677
3745.4148,1.934051357230112,298.0004957548696
3746.2786,1.9295922832568588,258.87467154158315
3747.1404,1.9264459274543115,313.30047503913073
3748.0044,1.92553035190916,303.6188050582548
3748.8667,1.927407876941391,297.65720846323455
3749.729,1.9315949660769443,291.6010996385819
3750.5938,1.9363846754723293,265.821817019679
3751.4565,1.9394394893180023,274.7577922967456
3752.3215,1.9391116963569803,262.0784603257787
3753.1848,1.9354220972302192,246.77385772462722
3754.0503,1.9301289050006023,279.67860796176245
3754.9138,1.9258002145441915,341.3647917978912
3755.7776,1.9242394197540846,299.27359899629573
3756.6438,1.925368101750627,294.9851404517017
3757.508,1.9271185448280201,271.1628586313404
3758.3745,1.9267325356587868,252.9898556468638
3759.239,1.922645748312966,288.4771565650154
3760.106,1.915542915239728,289.1471857813744
3760.971,1.9078497369036325,287.98368838540165
3761.8362,1.901902101622043,293.33411669009905
3762.7036,1.898579090858543,303.5924188904783
3763.5693,1.8971271978696882,306.3389401827584
3764.437,1.89599262017099,325.150747107245
3765.3032,1.8939302624881729,274.7354286343468
3766.1714,1.8905673271398222,294.4806378667532
3767.0378,1.8864371392998676,279.20021404862246
3767.9043,1.8825167699892313,271.3745714036919
3768.7732,1.8796684965748462,342.11377757621204
3769.6401,1.878188771583281,364.97995138780595
3770.5095,1.8776188274051577,317.21282281589504
3771.377,1.8770292476683446,325.1105500953757
3772.2466,1.8754737155241288,269.05019997293067
3773.1145,1.8724106395577103,281.0111096832359
3773.9824,1.867782347948219,285.4156790488874
3774.8528,1.8617171111455455,318.7945046604362
3775.721,1.8537996168540745,292.0930968757445
3776.5918,1.8414165470390744,299.6669971028595
3777.4604,1.8182234472259902,313.13353340802774
3778.3315,1.7742006680272437,294.6220856127634
3779.201,1.7021012233895962,305.73313128214966
3780.0703,1.6076174641185796,323.35453243778835
3780.942,1.5161669251384553,281.6751506014162
3781.8118,1.4650943213614647,304.63039893964606
3782.6838,1.479357015646949,291.3943497294406
3783.554,1.5532802189113515,288.5194025774913
3784.4265,1.6544261386969017,272.65043478907006
3785.297,1.7450349934805234,283.2947876773981
3786.168,1.8043397138464146,281.2944373933291
3787.041,1.8317891472423853,395.73799515055475
3787.912,1.8383025945120832,283.98003514825
3788.7856,1.8360688985699345,389.2584610908238
3789.6572,1.8328383926410834,324.87010860355366
3790.531,1.8314005085082172,325.64922121279693
3791.403,1.83129583535067,347.2467887710248
3792.2754,1.8307937623176698,310.6392692492563
3793.15,1.828391293172061,293.67646146065806
3794.0225,1.8235711406503323,323.0508420241042
3794.8972,1.816796037291297,303.2501801222235
3795.7703,1.8092442634498775,327.0249502944784
3796.6455,1.802299028312144,312.6931554182496
3797.519,1.7973471343585492,353.6378240361866
3798.3926,1.7953263467463019,313.05644934557336
3799.2686,1.7964099121002868,322.10190842708204
3800.1426,1.7997674736839362,314.6742156967472
3801.0188,1.803831765471452,368.28704877999814
3801.8933,1.806892663854239,294.3858846165307
3802.77,1.8078208059981915,329.4979855527599
3803.6448,1.8063857328967534,308.5354158157128
3804.522,1.8032480756785614,292.7950851888039
3805.3972,1.7996912736615982,329.62909854253223
3806.2727,1.7971141251457534,407.5355552727643
3807.1504,1.7965398979270244,362.44182212403405
3808.0261,1.7982291365916512,312.094168912132
3808.9043,1.8016414431698864,345.8672859539023
3809.7805,1.8057025813183012,268.0813564897779
3810.659,1.8093004523093048,328.59216848298536
3811.5356,1.8116345998258612,369.9490083741387
3812.4126,1.812555830249682,321.223769590141
3813.2917,1.8125420684969331,300.0896616286724
3814.169,1.8123521636608375,349.4143764534248
3815.0483,1.812469565059606,288.6545324244822
3815.926,1.8127623524842147,311.09391590340783
3816.806,1.8126100027295586,324.9969419941215
3817.684,1.8113379632483435,362.477029696489
3818.5623,1.8086082541060875,307.5203380928295
3819.4429,1.804543265431733,331.5856078344888
3820.3215,1.7996415311296614,288.89587385368225
3821.2024,1.7943660523878757,334.4743615820799
3822.0815,1.788841849747689,345.24445775964796
3822.963,1.7826160501882444,344.236506246122
3823.8423,1.775062257299112,327.3610999432213
3824.722,1.7658359500274123,361.5984602176296
3825.604,1.755233717721979,342.8370691823278
3826.4841,1.7441109212100965,344.8716014217146
3827.3665,1.7331758353075961,362.66477305958205
3828.2468,1.7227506937251684,417.54929254500047
3829.1296,1.7125031890644198,388.12364344275016
3830.0105,1.701965865944539,350.49723186945977
3830.8916,1.6908050162650017,369.66572495042703
3831.7751,1.679174561791175,361.27987099582765
3832.6565,1.6677381172053476,416.0562462486672
3833.5403,1.657125401756633,372.184150405137
3834.4224,1.647921502475488,376.09631329319245
3835.3064,1.6405486801947506,393.1342967296062
3836.1887,1.6355760432374207,371.49330728064166
3837.0713,1.633434641998403,466.4709573861739
3837.956,1.6340913345444652,375.026675628002
3838.839,1.6369773547920028,387.054815211615
3839.7244,1.6415803342111004,389.6293372989428
3840.6077,1.6479994698400795,386.6057432711106
3841.4932,1.6568988266546472,390.96119603301435
3842.377,1.6685641898568693,418.1185388586203
3843.261,1.6823866264659948,339.00276937011154
3844.1472,1.6970063114395315,381.8508440501686
3845.0315,1.7109499953442284,331.986037811699
3845.9182,1.7234803973923547,362.25596638170794
3846.803,1.7344060841881215,357.4900945205936
3847.69,1.7440195342576454,356.0685972382856
3848.5752,1.752544359345912,352.0134291462259
3849.4604,1.7601139543131523,330.0802498364598
3850.3481,1.7667315392005114,324.13837721845186
3851.234,1.7723950694251285,319.42477731771424
3852.122,1.7773913816788152,385.5194110533108
3853.0083,1.7821774360726754,323.53970085752417
3853.8967,1.7871737770637128,332.4764003799218
3854.7832,1.792200866062464,332.9290132159365
3855.6702,1.7963437024677205,344.57064990684285
3856.559,1.7982630070447094,323.64887069278626
3857.4463,1.7970114748330337,325.9735261149457
3858.336,1.7927146700985073,330.63952532462827
3859.2234,1.7866012568253413,335.1860098428384
3860.1135,1.7802352542285873,329.91649030228035
3861.0015,1.7747574904830936,381.191977365003
3861.8896,1.770287280079881,347.5063237593095
3862.7803,1.7661654195413954,354.52457412549387
3863.6687,1.7616323267553533,349.8758147648372
3864.5598,1.7563788306360544,362.53626109507485
3865.4487,1.7507561497096273,390.07797812813504
3866.34,1.7451574270391625,328.6288343068498
3867.2297,1.7394464388757458,357.3680098078175
3868.1213,1.732670534944973,365.12296174965127
3869.0112,1.7237964155917076,347.4513065434817
3869.9014,1.712611482171007,386.89536629449424
3870.7937,1.7002111493426801,322.63536798588854
3871.684,1.6885010232036892,395.7968908196359
3872.577,1.6787296739254074,404.3610107674169
3873.4678,1.6708221334517226,357.8959304756152
3874.361,1.6634553050177647,397.2762023252002
3875.2524,1.6553381687156208,369.9711986484229
3876.1438,1.6459177964213711,344.520548646041
3877.0376,1.635236175240914,431.7148669056252
3877.9297,1.6232868345436138,355.271304101045
3878.8237,1.6095501842411217,383.5680334121042
3879.716,1.5936752788197,399.6696816507365
3880.6108,1.5758194269161228,369.93748864218287
3881.5037,1.556929882189898,430.88954802514786
3882.3965,1.5379241178708245,493.54582582248673
3883.2917,1.519307845218397,418.32825149180616
3884.185,1.501244480216873,472.10572080241593
3885.0808,1.4835174624157876,416.9780562789527
3885.9746,1.4663033562791308,479.7652483734763
3886.8706,1.4501176193312324,502.25476728660567
3887.765,1.4360930492969186,544.9252623880548
3888.6592,1.4253733282753946,572.0533962458031
3889.556,1.4188434618562011,558.6356985606591
3890.4507,1.4169875708620858,536.9117326686124
3891.348,1.4198230528822986,574.2233130565296
3892.243,1.4269396960857124,493.1206385625037
3893.1406,1.4375155190045155,512.0815070051575
3894.0361,1.4502754795893056,556.3044419597853
3894.932,1.4640009217249963,490.66487373741654
3895.83,1.4778148301558707,523.6896095261183
3896.7263,1.4912771323034804,468.5757930849662
3897.625,1.5046783420234289,485.1047872841117
3898.5215,1.5186963281756933,455.8812471056007
3899.4207,1.5343520937545356,716.5252929287611
3900.3176,1.5520956475969334,410.27084889005266
3901.2148,1.5716153114660627,426.793281921218
3902.1145,1.5918552697867905,482.44963256794875
3903.0122,1.6115567623053162,386.8986989927456
3903.912,1.6302252255276306,418.8140922237281
3904.8103,1.647782078670334,404.62627131741124
3905.7107,1.6644241251572753,333.1531239776354
3906.6094,1.6799529974886827,365.95014085184266
3907.508,1.6940972806986552,347.31460352138924
3908.409,1.7066819227045928,368.3025482713452
3909.308,1.7176861625016946,378.0627555649357
3910.2097,1.7274172063209208,312.8790180163775
3911.1091,1.7363090403359325,397.2031644900637
3912.011,1.745080344609802,315.2555287211142
3912.9111,1.7542256845444908,323.7006080717405
3913.8113,1.7637048826355315,348.84123138780046
3914.7136,1.7728661566001258,328.42487336213924
3915.6143,1.7809874709386027,316.0431589600065
3916.517,1.7880668529883381,347.62262960335767
3917.4182,1.794646942654868,377.94964224461177
3918.3215,1.8012666293590422,340.2941216968382
3919.223,1.8077571175320917,336.88117628530193
3920.1245,1.8133925054688795,326.87342597713916
3921.0286,1.8173672434268142,293.4050991422235
3921.9307,1.8193142689433275,336.2093807631457
3922.835,1.8195340254855694,292.86405272939743
3923.7373,1.818698180653064,339.24809731881396
3924.642,1.8173976422606806,316.6780642312646
3925.5452,1.815827301023516,322.48915022356675
3926.448,1.8137986687076033,308.8958315334306
3927.3535,1.8110679425998908,316.272552801865
3928.257,1.8077223278254706,288.8311979432284
3929.1628,1.8041995557436095,311.33743013413
3930.0667,1.8010201162241333,339.1765065380802
3930.9731,1.798284053597327,291.04247539450563
3931.8774,1.7956274400982182,351.5038453044499
3932.782,1.792521994391035,338.2554734899864
3933.6887,1.788726184276648,332.52370582999305
3934.5938,1.7843873267014838,320.78918514494876
