wavl,flux,ivar
3566.9744,1.1393324369734044,1285.1748284949633
3567.795,1.138709100410028,1868.510723359663
3568.6177,1.1362889005029626,1268.4151715138933
3569.4385,1.132929193210746,1209.8740344590597
3570.2617,1.1295973554871455,1190.8102652402863
3571.083,1.1270118732483818,1347.2681267671028
3571.9065,1.1254449627886745,1319.9048197308557
3572.7283,1.1247291044290815,1528.3659147278256
3573.55,1.12429856185977,1113.5909245599403
3574.374,1.123555081521115,1505.0601541605047
3575.1963,1.1223748315188196,1220.0629292529422
3576.0208,1.1213094449959693,1576.511100800963
3576.8435,1.121246912718438,1403.5508767879955
3577.6682,1.1227083565118856,1426.4973083230573
3578.4915,1.1253582322068694,1140.2117350135215
3579.3145,1.1280761266142592,1202.094966310634
3580.14,1.1294805262773824,1325.4232072402156
3580.9636,1.128579441825497,1269.751543176081
3581.7893,1.1252797635281573,1194.8717581273033
3582.6133,1.1204858636316695,1585.5362480421722
3583.4395,1.1156541379252007,1277.2249374956318
3584.264,1.1121880791688126,1482.7005899529652
3585.0884,1.1107878833647664,1466.841241904996
3585.915,1.111376509700412,1189.3147264038598
3586.74,1.1134095284165482,1221.4964766051585
3587.5671,1.116337606119137,1346.8731301083246
3588.3923,1.1197354406370372,1299.3708464761444
3589.22,1.1231987183186354,1504.888381483778
3590.0457,1.1261646547319335,1453.834283371361
3590.8716,1.1281759481755782,1317.0895190529955
3591.6995,1.1291512400231796,1390.8562985640183
3592.526,1.12942111793812,1260.611212188373
3593.3542,1.1294572950359174,1370.9829038820326
3594.181,1.1295597905108896,1397.9293743393937
3595.0098,1.1297251322945971,1425.39885640976
3595.8367,1.1296331449060613,1292.8996765757945
3596.6638,1.1287250487415774,1233.809249996373
3597.4934,1.126413106796115,1222.361988890267
3598.3208,1.1224325415101204,1342.4314300048934
3599.1506,1.1169783106102242,1267.4984259729483
3599.9788,1.1106712842265392,1668.3480575526514
3600.8088,1.1041756124118494,1259.2497762385851
3601.6372,1.098194257868871,1455.6620817195183
3602.4678,1.0935147510812455,1509.1035251755827
3603.2964,1.091187012743745,1584.0886980566565
3604.1252,1.0920669439259878,1565.3829678491077
3604.9565,1.096233243122535,1267.055654453962
3605.786,1.1025713719856811,1430.805999567016
3606.6172,1.1091779715292833,1323.1338470439323
3607.447,1.1140583375146154,1255.8436465717907
3608.2788,1.1160061833472528,1015.846577482929
3609.109,1.114950805957248,1186.7993658562223
3609.9392,1.1118475648768191,1841.3703823053274
3610.7717,1.107994144662008,1268.0147172633976
3611.6023,1.104392779535476,1489.2533310578094
3612.435,1.1015354929842553,1347.1561736449537
3613.266,1.0998508165727803,1218.5383935475538
3614.0994,1.099865305809297,1677.1047953355771
3614.9307,1.1017838322413966,1561.2702940525203
3615.7625,1.1048743127094316,1573.8031271193272
3616.5962,1.1076246623159525,1327.0357644363244
3617.4282,1.108769298688403,1325.7381348602182
3618.2625,1.1083065992010286,1382.1728168162895
3619.0947,1.1073977534671913,1532.649220225986
3619.9292,1.1072973417899428,1348.518582723466
3620.762,1.1082996509279908,1295.1581562055494
3621.595,1.1095625808912861,1397.1766109106989
3622.4302,1.1098618763220724,1341.1419530127196
3623.2634,1.108593807495665,1356.6244984662053
3624.0989,1.106237291461273,1334.476014342307
3624.9326,1.1039806248227886,1523.873584190862
3625.7686,1.1028443247867017,1614.143194294776
3626.6028,1.1031501245289954,1325.7345086571295
3627.437,1.1045765513094148,1166.579440467797
3628.2734,1.1066177481769734,1579.2919904170337
3629.1082,1.108870343201498,1289.4655483576314
3629.945,1.1111029721281858,1623.2775357756627
3630.78,1.113139979831563,1568.412099860957
3631.6174,1.1148615834499156,1465.3424568297514
3632.453,1.1161553652612954,1514.084963942228
3633.2883,1.1169812903221914,1346.9435863484764
3634.1262,1.1174676442443532,1218.2469741596026
3634.9622,1.118005470157001,1218.427700813542
3635.8005,1.1190974335089956,1436.1882057947162
3636.637,1.1209091240117475,1294.579656533258
3637.4756,1.123009849320602,1308.0092661635229
3638.3123,1.1246272658009893,1381.0182498016588
3639.1492,1.125333559686702,1315.6252728452257
3639.9885,1.125364446028288,1409.7868405777547
3640.826,1.1253422796642405,1241.7964532797275
3641.6653,1.1257561995366494,1194.1533693483223
3642.5032,1.1267121100193485,1313.0517382297273
3643.343,1.1280122212149888,1130.0737293819464
3644.1812,1.1292954759209144,1164.0707776991032
3645.0195,1.1302026000321537,1097.132706889763
3645.86,1.1305125294160057,1503.8506051249853
3646.699,1.130218351360104,1398.7185767850863
3647.5398,1.1294853367380628,1224.4932719447136
3648.379,1.1285994989551626,1340.6712135966666
3649.2202,1.1279545265926105,1539.1965636321124
3650.0596,1.127973789517283,1450.9986990081463
3650.8994,1.1288367735429308,1389.613902031477
3651.7412,1.1302515046687136,1301.3136493188765
3652.5813,1.1314925508682747,1349.9746819159138
3653.4236,1.1317803066633703,1429.1421001141741
3654.2642,1.1306815145514868,1213.6550120088098
3655.1067,1.1283168539991697,1598.8783311100533
3655.9475,1.125283542535543,1331.3326402694468
3656.7886,1.1223429762288994,1252.689762907369
3657.6318,1.1201466214504132,1153.7703553728688
3658.4734,1.1190557392356977,1511.0845545867558
3659.317,1.1190388546404002,1225.6171330981438
3660.1587,1.119755789321105,1186.0017594389951
3661.003,1.1207250604571772,1355.5951645440086
3661.845,1.1214698149385924,1354.6376273177243
3662.6875,1.1215574246998177,1278.49612059316
3663.532,1.1204832257013,1178.1552505109541
3664.3748,1.1176030257155947,1398.38323638156
3665.2197,1.1122272577004189,1162.8702025927196
3666.063,1.1041579949777538,1407.8413309597372
3666.9084,1.0943191941442167,1509.9482142399822
3667.752,1.085267144831814,1130.520737288172
3668.5977,1.0802225579212592,1375.6372316116717
3669.4417,1.081322763394834,1302.1886947021565
3670.286,1.0879900582213091,1302.4771550184573
3671.132,1.097348592501948,1528.708157167777
3671.9768,1.1060626740661426,1434.9426615021937
3672.8235,1.1122675298842177,1419.3208791161435
3673.6685,1.1158018451593357,1320.9625163569988
3674.5156,1.117485342494781,1249.889625122145
3675.3608,1.118095748820609,1158.1888363246844
3676.2063,1.1179844333481372,1247.52769869301
3677.0542,1.117165585656133,1346.7235531851468
3677.9,1.1156808817683388,1242.1073320776377
3678.748,1.1138554762812098,1523.7522473677404
3679.5945,1.1123177727283289,1244.88711468871
3680.4429,1.1116646363319413,1616.4419922099669
3681.2896,1.1120863918660786,1437.8758217426607
3682.1365,1.1131657222557036,1483.5531224693582
3682.9856,1.1141085282090604,1329.2338590528846
3683.8328,1.1142870156487286,1343.6181049435174
3684.6824,1.113701304419369,1379.4134862307783
3685.53,1.1128222851808596,1294.5598729315338
3686.38,1.1118755898376602,1386.7999716207353
3687.2278,1.1103533394540037,1332.9787039093096
3688.0762,1.107399342567068,1300.9806828156295
3688.9265,1.1028507566136707,1286.1470501252243
3689.7751,1.097900360212152,1259.1541452740864
3690.626,1.0944954560193776,1560.3242052357696
3691.475,1.0941251585748009,1513.5161202920822
3692.3264,1.0968601657005561,1661.2666327557386
3693.1758,1.1014996559689083,1221.7787758092475
3694.0254,1.1064859188140066,1264.855388493366
3694.8772,1.110669864317555,1193.2164540770657
3695.7273,1.1134755053175964,1407.4520681341041
3696.5793,1.1147327136023637,1328.4567987155172
3697.43,1.114428997059703,1284.4991731747205
3698.2825,1.1127596452589468,1063.5482772588875
3699.1333,1.1101916320030718,1484.0002992029556
3699.9841,1.1073222097228592,1426.032890576908
3700.8374,1.10466103398867,1239.7348014815566
3701.6887,1.1025346442544228,1354.880384359896
3702.5425,1.101032543267848,1504.0025828908865
3703.3943,1.1000749383899557,1272.3251858667506
3704.2483,1.0994660938128193,1506.1799740842778
3705.1003,1.0990744890758557,1475.520497231348
3705.9526,1.0989072862444327,1176.0945752466746
3706.8074,1.0990197462618518,1601.095951987068
3707.66,1.0993610471492923,1438.0305797256053
3708.515,1.0998001814160023,1326.731584214248
3709.3682,1.1003159394413544,1195.7288992930605
3710.2234,1.1011121915947235,1317.3387702170892
3711.0771,1.1024261627102174,1346.7775699720237
3711.9307,1.1042309075523324,1515.5092434811147
3712.7866,1.1061791942418289,1366.643899433996
3713.6409,1.1078566990652585,1372.5489325307715
3714.4973,1.1090616335083803,1549.4963604706234
3715.3518,1.109686301695512,1142.6338519951832
3716.2085,1.1095433076330672,1302.2720145739954
3717.0635,1.1084882563770788,1307.3008941868216
3717.9185,1.106803707503185,1185.5949334385953
3718.776,1.1052614099170446,1474.1652446402989
3719.6313,1.1046388265588667,1337.5116139089603
3720.489,1.1050715732951617,1276.9590772717959
3721.345,1.105936192029236,1186.3227344475217
3722.2031,1.1063141334358109,1304.4287070046005
3723.0593,1.1055990755067766,1299.138816165253
3723.9158,1.103813390001843,1165.261850755259
3724.7747,1.1014868062032006,1499.677261049726
3725.6316,1.0993430906622865,1475.1131162449224
3726.4905,1.0979421694074292,1308.2226518788948
3727.348,1.0975644908689204,1446.8308378421157
3728.2073,1.0981815633963066,1330.1349065878994
3729.065,1.0995186806186006,1426.656964845219
3729.9229,1.1011841721775828,1357.8188624815627
3730.783,1.1028482547152916,1383.3377058489762
3731.6414,1.1043320069529814,1314.6570843928134
3732.5017,1.105541601747699,1394.9589148366047
3733.3604,1.1062570975892383,1424.6873905350958
3734.2214,1.106106904213095,1403.9332771623117
3735.0803,1.1047734973587835,1375.0503134844437
3735.9417,1.1023303590495568,1507.2201515138672
3736.8013,1.0994598736278125,1363.1457371066585
3737.661,1.0972322266578476,1477.9092317396367
3738.5227,1.0966337031586921,1274.9069467556812
3739.3828,1.0981250986326303,1414.5984158417598
3740.245,1.1015321225362098,1243.0327548585058
3741.1055,1.1061464541799562,1484.1995317445649
3741.9683,1.1109007643223612,1200.1680002549638
3742.829,1.1144240832329686,1293.6606312369547
3743.69,1.1155423848450963,1456.2031677715925
3744.5532,1.1138693468240117,1194.0137764779442
3745.4148,1.1101711650802069,1435.6442325692822
3746.2786,1.1058847860164442,1521.0722875734969
3747.1404,1.1022182073008315,1454.7299408082015
3748.0044,1.09947810709709,1266.1550101857729
3748.8667,1.097387718959631,1534.4644162249485
3749.729,1.0957292292785183,1448.157668112955
3750.5938,1.09466697560533,1376.0252417494441
3751.4565,1.094377811932598,1497.8006682033433
3752.3215,1.0945311326986298,1370.699841687935
3753.1848,1.0943611876922066,1442.658693044526
3754.0503,1.0933292284329479,1221.540557384321
3754.9138,1.0917570358231152,1283.4043437049277
3755.7776,1.0907519311223859,1431.2024211224675
3756.6438,1.091483099232122,1163.6178369366748
3757.508,1.0943595693518904,1354.299957271696
3758.3745,1.0988002181391385,1217.2864450171485
3759.239,1.1035888782945151,1356.6545781676605
3760.106,1.1075855134068635,1395.2291665698722
3760.971,1.110052887678692,1350.5322182295665
3761.8362,1.1107912047604764,1264.588521723562
3762.7036,1.1099799075427619,1416.8239501639928
3763.5693,1.1080902727128787,1294.9298218330316
3764.437,1.1057445748059993,1511.3537324753909
3765.3032,1.1035136885475332,1397.654546442394
3766.1714,1.10161874855709,1297.1228060296291
3767.0378,1.0998807894422897,1405.4154579567034
3767.9043,1.0978971987673964,1293.9852388112956
3768.7732,1.0953700123917585,1395.2451671310823
3769.6401,1.0923135662458634,1325.2175386048684
3770.5095,1.0889987565454144,1480.8720603513632
3771.377,1.0859212386933677,1399.0611502579127
3772.2466,1.0836243363128157,1362.4423191985045
3773.1145,1.0825922158909527,1607.2466374521487
3773.9824,1.0830734878714592,1138.8207121016321
3774.8528,1.0851123819181985,1437.16935765723
3775.721,1.0885923304223866,1446.9556455364632
3776.5918,1.0932635320253519,1493.373976966855
3777.4604,1.0985650632122403,1252.2590430878663
3778.3315,1.1037672003938865,1211.4030007345762
3779.201,1.10815997064558,1274.2814235992987
3780.0703,1.1114505093060665,1781.0486936364327
3780.942,1.113776810255648,1398.5780349249533
3781.8118,1.115492467610373,1356.2634459788421
3782.6838,1.1169310533377528,1156.5412134190503
3783.554,1.118212937163414,1311.6231520926044
3784.4265,1.1192947959158452,1258.568765408592
3785.297,1.120094243792478,1255.1930288256428
3786.168,1.1206144362900168,1357.248531705185
3787.041,1.1208420663361855,1483.0920205906455
3787.912,1.1205614714061107,1224.3654141399134
3788.7856,1.1193488487936747,1330.3673843890779
3789.6572,1.1168517651999728,1128.596429323669
3790.531,1.113039568822992,1390.1030779111707
3791.403,1.1082271790337026,1426.5177953497066
3792.2754,1.1027340481849297,1502.656536889262
3793.15,1.0966648245095503,1368.514412108831
3794.0225,1.0899756640209455,1273.220132166207
3794.8972,1.0825447208298635,1307.3377557993244
3795.7703,1.0744394317193398,1505.1170333691534
3796.6455,1.0658420529449988,1503.2757405952968
3797.519,1.0572287089951709,1564.8607771849004
3798.3926,1.0492486666713132,1531.9157198921587
3799.2686,1.0426859169976932,1609.0792928300698
3800.1426,1.038312941516913,1504.4798276347142
3801.0188,1.0366049278765743,1476.7453994329828
3801.8933,1.037767353070669,1533.2311904774256
3802.77,1.0417731589537549,1615.6752568218308
3803.6448,1.048416713036963,1647.2163318819562
3804.522,1.0573815879446993,1469.6133060830807
3805.3972,1.0680364736140182,1608.2898442388255
3806.2727,1.0795632810465152,1319.4527197152759
3807.1504,1.0910456505691597,1422.6931286430931
3808.0261,1.1016499384201561,1183.350136731444
3808.9043,1.1109943663182327,1169.1694638406043
3809.7805,1.118894409758381,1442.233159662961
3810.659,1.125363738622757,1382.1810950406891
3811.5356,1.1304004386029398,1266.2843830529275
3812.4126,1.1342168199072291,1271.592484400022
3813.2917,1.1372509002189575,1096.8659033291217
3814.169,1.1399777726999267,1343.5485415136668
3815.0483,1.1426705681085745,1259.043619512087
3815.926,1.1452401168594866,1314.9393595454062
3816.806,1.1474114631096928,1350.2024051897256
3817.684,1.148844156515458,1336.8525147155478
3818.5623,1.1492371929761556,1215.2743668749874
3819.4429,1.148365615382409,1113.2751856089312
3820.3215,1.146222320216469,1317.0006232784249
3821.2024,1.1430717313397716,1238.849633303701
3822.0815,1.1393819259144782,1280.6794438323257
3822.963,1.1355512286704434,1250.0650727419898
3823.8423,1.1317927640013474,1351.1200929364018
3824.722,1.1280265802182932,1265.6039490316589
3825.604,1.1239733041330315,1238.221345192575
3826.4841,1.1193145896594006,1198.6911240146246
3827.3665,1.113752964253148,1294.778166999649
3828.2468,1.1071712311487338,1353.5066563757982
3829.1296,1.0994743525153563,1318.1263912880386
3830.0105,1.0905749850683106,1422.9399363471878
3830.8916,1.0801409094522856,1336.5814157849766
3831.7751,1.067672578795198,1438.48548302881
3832.6565,1.0528562079638002,1412.7280626641536
3833.5403,1.0356227971601222,1359.011520241993
3834.4224,1.016634432663625,1590.7839093463604
3835.3064,0.9970302306467814,1762.9527530789417
3836.1887,0.9787669292843005,1613.5056611850111
3837.0713,0.9642574126049936,1781.2499931563761
3837.956,0.9560699415409617,1815.126774723533
3838.839,0.9560339938587904,2450.1716318509757
3839.7244,0.9643025756032747,2079.7537869428807
3840.6077,0.9792472035803963,1738.9979476528258
3841.4932,0.9983851481119187,1525.3167691077974
3842.377,1.0191822206617636,1411.8511801792579
3843.261,1.039907340220016,1561.167509400164
3844.1472,1.05948005867647,1441.4896495332355
3845.0315,1.0770947546614908,1336.5692931078825
3845.9182,1.0924410073139375,1406.6968127248854
3846.803,1.105435345343797,1395.134433007117
3847.69,1.1165490981820871,1415.2633844389359
3848.5752,1.1263737375441303,1212.1768271763694
3849.4604,1.1354528862460287,1517.7555972868372
3850.3481,1.1439434881545254,1100.1532323620922
3851.234,1.1516174623032753,1185.8870176251069
3852.122,1.1583535918774115,1209.3372069164964
3853.0083,1.1642777833317761,1036.0426110045312
3853.8967,1.169846862541133,1199.6456417576735
3854.7832,1.1753857736513587,1207.6559387198365
3855.6702,1.1808616919052424,1182.0288200297916
3856.559,1.1858321430251575,1129.839428236262
3857.4463,1.1897512982497078,1186.3755439073414
3858.336,1.192411483251689,1223.486559383536
3859.2234,1.193997231751839,1075.8351291814365
3860.1135,1.1949462970350455,1215.321792170977
3861.0015,1.1955889242086928,1181.3331302228519
3861.8896,1.1959710576330331,1223.2955175132174
3862.7803,1.1958956357513912,1156.5424089476974
3863.6687,1.1951803773722673,1174.6527761064185
3864.5598,1.1939091787866827,1054.3053266232962
3865.4487,1.1924992131610286,1230.0261642789385
3866.34,1.1914473423597776,1208.1744869945999
3867.2297,1.1909597154584648,1158.7770557435158
3868.1213,1.1906432650466818,1323.114851265936
3869.0112,1.1896061276539986,1209.6210553917708
3869.9014,1.1869636289050693,1109.5000416117427
3870.7937,1.182440255535588,1071.9318900891428
3871.684,1.1766441194942034,1248.277753001283
3872.577,1.1706375105583338,1236.9136173574714
3873.4678,1.165422207799912,1181.4519652225383
3874.361,1.1614109180439383,1297.291434227416
3875.2524,1.1584577557797011,1380.6738969327055
3876.1438,1.1558938101423837,1447.1160853729002
3877.0376,1.1526891935409207,1190.7568460555347
3877.9297,1.1476793395953557,1199.9581520682177
3878.8237,1.1398437543551312,1237.6308784991613
3879.716,1.1287120711298466,1283.1678530528486
3880.6108,1.1142912698070373,1385.015326680413
3881.5037,1.0971325525855715,1235.364175331268
3882.3965,1.0779576520979663,1276.1608410852368
3883.2917,1.0576069217060102,1608.805041128023
3884.185,1.0369886359105573,1788.4601144556543
3885.0808,1.0163671206403915,1617.7634078064582
3885.9746,0.9955755088570971,1716.9838549681758
3886.8706,0.9738384349140703,1763.001230314684
3887.765,0.9507425322810698,1716.6902753876593
3888.6592,0.9265841776779608,1899.830260525619
3889.556,0.9029779335979492,1938.3511535020584
3890.4507,0.8830786726584028,2308.1655439742794
3891.348,0.8704605113601703,2607.569627818981
3892.243,0.8680796123897832,2654.8253199548603
3893.1406,0.876732839943067,2311.4730603632865
3894.0361,0.8947293538648343,1971.0279879847772
3894.932,0.9188345727686188,2048.2670836684474
3895.83,0.9456922703739464,1716.8420020737105
3896.7263,0.9726375827306628,1899.7747580230866
3897.625,0.9984345691602652,1709.7154299875397
3898.5215,1.0224445549237906,1610.2855764317776
3899.4207,1.0446845230171637,1579.8213220978403
3900.3176,1.064955757088766,1472.529066890371
3901.2148,1.0831182783649347,1497.2503521856092
3902.1145,1.0989674697237648,1292.1001559419649
3903.0122,1.1124134763154854,1324.7333314448856
3903.912,1.123903646212717,1351.6521015460655
3904.8103,1.1340211029199296,1375.438762845406
3905.7107,1.1433794296561153,1402.8215233431747
3906.6094,1.1522856842774598,1185.0014279496227
3907.508,1.1609867388221344,1155.564897516695
3908.409,1.1697435256518423,1184.30414760354
3909.308,1.1787085490123321,1232.50704070092
3910.2097,1.18787752691359,1245.751168671564
3911.1091,1.1968359800119717,1086.8178721610298
3912.011,1.2050555507661715,1233.7597057959129
3912.9111,1.2119346894893925,1192.9264409980067
3913.8113,1.2171175525013085,1001.3846926598198
3914.7136,1.2205322311629927,1079.3031414373215
3915.6143,1.2224206537607665,1168.5005758979685
3916.517,1.2233565824427852,1116.3420217803157
3917.4182,1.2240796591094458,1165.7242711651488
3918.3215,1.2252965218941787,1209.1068567493785
3919.223,1.227414615866459,1156.3850062966037
3920.1245,1.2304179097712993,1017.698734601628
3921.0286,1.2339258927189602,1118.73051675783
3921.9307,1.2373954293303315,1019.3514325597428
3922.835,1.2404596501815364,1134.3035805090708
3923.7373,1.2430385869307254,1023.307512712354
3924.642,1.2453637098430286,1029.9549732335965
3925.5452,1.2477074581184109,973.5562554881257
3926.448,1.2501517402432538,1085.1121997017015
3927.3535,1.2524511757658066,1132.3855446171851
3928.257,1.254135693805526,1060.3080054580266
3929.1628,1.254849429145405,1089.0367325984193
3930.0667,1.2545708775725148,950.0975006478185
3930.9731,1.2536301759149542,1072.5410863410868
