wavl,flux,ivar
3566.9744,0.7240974459405446,911.5175657287201
3567.795,0.7234877843723867,990.4603012960654
3568.6177,0.7220849961210977,1170.303062816834
3569.4385,0.7196016994756486,940.385525518279
3570.2617,0.7159501983496104,1117.5184746236046
3571.083,0.7115149278704319,1199.787888727098
3571.9065,0.7070571487249606,1206.152337624877
3572.7283,0.7034966610567589,1104.0312583524149
3573.55,0.7014917311904517,1006.9043484235087
3574.374,0.7012734536947509,1214.382538477014
3575.1963,0.7025799039056149,1186.0425244317162
3576.0208,0.7047692323523401,1282.442110094116
3576.8435,0.7070972112652749,1305.7653394559186
3577.6682,0.7090865903472149,1413.7618928878728
3578.4915,0.7106086419375874,1162.4483041120764
3579.3145,0.7117234781642222,1019.3836994569172
3580.14,0.7123774742502502,1279.921839313099
3580.9636,0.7123028695855868,1201.8725862511706
3581.7893,0.7112226180199158,1090.9408993816944
3582.6133,0.7091718041982653,960.0101538289274
3583.4395,0.7066053974502005,1000.6631465344218
3584.264,0.7041932311849204,1206.9724144487295
3585.0884,0.7023645620821988,1274.119078184281
3585.915,0.7011292253676282,1394.2309899535965
3586.74,0.7002572854939931,1028.3392128696303
3587.5671,0.6995539366650739,1184.0267244665406
3588.3923,0.6989842874718658,1009.0181124113136
3589.22,0.6985585614416576,1232.501596341782
3590.0457,0.6982157704308775,1163.5638493215308
3590.8716,0.6977819618683547,1153.407678539262
3591.6995,0.697071182636589,1222.1705827956523
3592.526,0.6960918652147527,1143.0374899700844
3593.3542,0.6951703713352805,1263.252223260586
3594.181,0.694810722725532,1341.7435222034019
3595.0098,0.6952808382810707,1242.526869087726
3595.8367,0.6963087334180487,1153.9761299861502
3596.6638,0.6971645117502244,1198.24663262317
3597.4934,0.6970460815798447,1121.440854387102
3598.3208,0.6955087266584407,1030.4813263709812
3599.1506,0.6926951377407697,1116.4901952569764
3599.9788,0.6893483645675121,1108.9699335021794
3600.8088,0.6864921459854021,1193.39134237927
3601.6372,0.6850293356037452,1138.3101153316982
3602.4678,0.6852560818023095,1316.0771819859788
3603.2964,0.6866585595358085,1317.9672522378035
3604.1252,0.6880704866066444,1036.631973331868
3604.9565,0.6882525399849109,1011.1047803651438
3605.786,0.6866693472939993,1253.1329522915478
3606.6172,0.6839255019897885,1299.9652273568315
3607.447,0.6814386142241293,1346.0359659146284
3608.2788,0.6804586021167275,1197.4781741848874
3609.109,0.6812980638402043,1024.3088814410821
3609.9392,0.6832497892240414,1077.019551512792
3610.7717,0.6851427086768089,1094.3607745328752
3611.6023,0.6859333755009349,1501.524696670082
3612.435,0.6851133704266565,1218.9924210142983
3613.266,0.6828672515076027,1073.1692369680163
3614.0994,0.6800214912605147,1261.7559420651091
3614.9307,0.6777359395229908,1591.779814088895
3615.7625,0.6768682848705683,1084.1852132180911
3616.5962,0.6775051764584838,1363.2915529670322
3617.4282,0.678905109474047,1544.804577760198
3618.2625,0.6800442264542844,1076.6778984605417
3619.0947,0.6803421134066199,1300.1330921535414
3619.9292,0.6800138171896687,1271.2220121450864
3620.762,0.6797028289590419,1262.9464074312805
3621.595,0.6797995438625524,1395.3868809661892
3622.4302,0.680081714147274,1325.697189859905
3623.2634,0.679891992354174,1056.1707497861662
3624.0989,0.6785852747352664,1254.95039488311
3624.9326,0.6758958992480106,1151.5702800088045
3625.7686,0.6720774215915563,1322.1325639108804
3626.6028,0.6679593364643261,1322.0695137735145
3627.437,0.6647152887000868,1302.2056189972325
3628.2734,0.6634873651053895,1235.7258005391222
3629.1082,0.6648669571768829,1422.1589636779806
3629.945,0.6685428909733828,1342.5654157910335
3630.78,0.6733667330904698,1128.1947803643093
3631.6174,0.6779247791484,1277.2828444273932
3632.453,0.6810815420922485,1176.8281102993137
3633.2883,0.6824442842874646,1262.3032812140186
3634.1262,0.6822688939087009,1413.87376040433
3634.9622,0.6811512964184425,1412.413752104047
3635.8005,0.6797099604026534,1064.1765603606661
3636.637,0.6784671609853286,1384.7778184827391
3637.4756,0.6777702680809411,1387.1260022267863
3638.3123,0.6777060526237395,1205.853908727665
3639.1492,0.6780076961178108,1273.1360095110085
3639.9885,0.678194385797375,1400.8706999681062
3640.826,0.6778972236375082,1061.5519437615926
3641.6653,0.6771292425431569,1193.2504231341966
3642.5032,0.6762486906041443,1243.3764370616348
3643.343,0.6756449064205929,1505.4037764582747
3644.1812,0.6754776900740277,1362.4648710529675
3645.0195,0.6756688817216739,1257.173867982973
3645.86,0.6761103312411764,1181.551648067237
3646.699,0.6767798489469956,1409.036555099133
3647.5398,0.6776557672489743,1122.9570802653022
3648.379,0.67855311534393,1342.1553505436057
3649.2202,0.6791555760107806,1187.8796597627813
3650.0596,0.6791953041148906,1251.890698937464
3650.8994,0.6786101427086473,1314.8382695756168
3651.7412,0.6774534041662376,1166.4076700218484
3652.5813,0.6756911972844319,1237.165625624964
3653.4236,0.6731202995215105,1181.557535057962
3654.2642,0.6696482591596914,1317.7493116306346
3655.1067,0.665567404811686,1421.1617444899252
3655.9475,0.6616358816053527,1594.4509253135377
3656.7886,0.6586837518285095,1025.259648474314
3657.6318,0.6572651089855247,1021.8338787957441
3658.4734,0.6574856098490229,1478.9652405293605
3659.317,0.6590029791452262,1510.8182969129698
3660.1587,0.661120346113203,1425.0364016761152
3661.003,0.6629967001524638,1307.5117063127964
3661.845,0.6639406392653701,1005.61833349655
3662.6875,0.6637728665047481,1197.6402797270407
3663.532,0.662900499756128,1594.0835032181699
3664.3748,0.6620942725455714,1420.9374338142368
3665.2197,0.6620172421473913,1369.2566556728289
3666.063,0.6628769222315976,1539.5211794235204
3666.9084,0.664455564269753,1178.6969154634498
3667.752,0.6664232051836746,1411.1772347805243
3668.5977,0.6685837406854143,1597.9033894128374
3669.4417,0.6707352340510048,1281.0178185682003
3670.286,0.6725351986623389,1228.4197398970996
3671.132,0.6735763382179594,1273.3010796749254
3671.9768,0.6736722150084028,1399.5680809685882
3672.8235,0.6730094531339651,1340.962094792019
3673.6685,0.671991023015581,1350.6249187254043
3674.5156,0.6709623787349244,1241.961512862071
3675.3608,0.6700988508059312,1247.1942299778937
3676.2063,0.669431898882863,1134.442274454164
3677.0542,0.66891789392512,1304.1073685665438
3677.9,0.6684169201151304,1215.4706538920375
3678.748,0.6676675251084149,1396.3807848174697
3679.5945,0.6664250954700384,1341.7393658834644
3680.4429,0.6646653437062022,1336.1297937631643
3681.2896,0.6627066326818322,1513.8124439119035
3682.1365,0.6610064413083768,1090.412359681052
3682.9856,0.6598005413103624,1367.200432211769
3683.8328,0.6588393669019597,1538.9896794275148
3684.6824,0.6574872538756475,1186.0166179047696
3685.53,0.6552441921828963,1298.2543571634837
3686.38,0.652204565295575,1011.4685119386551
3687.2278,0.6491454235859317,1252.542419839888
3688.0762,0.6470108694372536,1517.2473636652876
3688.9265,0.6463598033108447,1295.2134869668027
3689.7751,0.6471072387794771,1667.2220467895422
3690.626,0.6487095355547333,1486.3148652972577
3691.475,0.6505067754362271,1291.9852370121423
3692.3264,0.6519663045828574,1290.0515938470537
3693.1758,0.6527066923113322,1245.2752164817566
3694.0254,0.6525645684904651,1357.423478569835
3694.8772,0.6516833227152118,1360.0537452785325
3695.7273,0.6505603963657773,1291.9882495745446
3696.5793,0.6498227977546335,1241.6106202437081
3697.43,0.6498602425120859,1160.1461940026986
3698.2825,0.6505579586936455,1264.4597001925704
3699.1333,0.6513714654418665,1272.075889122666
3699.9841,0.651677514993763,1340.0305443107209
3700.8374,0.6511280859884477,1230.592423905878
3701.6887,0.6498243964724828,1380.9624468830027
3702.5425,0.6481928938987704,1311.093433827405
3703.3943,0.6466930983693427,1595.4086319510773
3704.2483,0.645475788846819,1216.1211235747746
3705.1003,0.6443169729552096,1616.9458173432113
3705.9526,0.6427871476861697,1595.8281049230313
3706.8074,0.6405838621105875,1466.9774068619365
3707.66,0.6377852405588194,1398.1501273022905
3708.515,0.6348049926840471,1607.9449070141834
3709.3682,0.6322533149085235,1627.9862665711307
3710.2234,0.630639269309297,1342.44569041208
3711.0771,0.6302253837398816,1603.7861708047728
3711.9307,0.6309102252905028,1517.636395804381
3712.7866,0.6322677789627156,1549.6682137679682
3713.6409,0.6336559261217224,1524.3937174848293
3714.4973,0.6344349564515416,1467.438461665492
3715.3518,0.6341690546865267,1371.8551625585692
3716.2085,0.6328568777403675,1472.0351940043706
3717.0635,0.631067388835899,1296.2870932634066
3717.9185,0.6297687843205947,1762.6099094659953
3718.776,0.6298285386425431,1689.3882715671148
3719.6313,0.6314381349671793,1453.07553755986
3720.489,0.6339631467521881,1330.4908235776377
3721.345,0.6363408846407443,1569.040734977294
3722.2031,0.63775002640322,1396.615466995237
3723.0593,0.6379128229010438,1938.1976051537392
3723.9158,0.6370025449900534,1381.1767381501743
3724.7747,0.6353245386336405,1344.0237970512803
3725.6316,0.6331928324486308,1360.9707636535336
3726.4905,0.6309358860072827,1393.23304095037
3727.348,0.628957982971296,1455.496084234188
3728.2073,0.6276021895131909,1734.9039566736028
3729.065,0.6270329859149202,1601.716904056118
3729.9229,0.6271626993304625,1541.3701194284681
3730.783,0.6277322981944036,1431.140962639866
3731.6414,0.6284277680368061,1385.9609716060493
3732.5017,0.6290112905460415,1864.6315934223735
3733.3604,0.6293559365649388,1288.1059522264372
3734.2214,0.6293881681119066,1288.4904215611155
3735.0803,0.6289991564332547,1507.7287057678998
3735.9417,0.6280820442620832,1491.8226139195215
3736.8013,0.6266900285847294,1530.2863351861756
3737.661,0.6251107826919542,1624.7173719796365
3738.5227,0.6237660703805965,1448.0609019276649
3739.3828,0.6229943931018351,1589.5336469003007
3740.245,0.6228471424818586,1582.406320576892
3741.1055,0.6230833146047533,1626.3820766978374
3741.9683,0.6233128012061148,1385.2661581149985
3742.829,0.6231915986572695,1255.7007266334272
3743.69,0.622525680441112,1736.863159432414
3744.5532,0.6212383557063954,1563.088741576256
3745.4148,0.6193494882901099,1421.6195007417602
3746.2786,0.6169883523007801,1514.459178969553
3747.1404,0.6144648330819139,1402.5933256945395
3748.0044,0.6121572153452194,1402.0783681557843
3748.8667,0.6103959440508281,1650.8185689000245
3749.729,0.6092973561741009,1591.7598554012798
3750.5938,0.6087821183484541,1351.6020974488608
3751.4565,0.6087067756520547,1419.2878470557089
3752.3215,0.6090265788897218,1330.7243025485177
3753.1848,0.6098213222464954,1825.5670499883852
3754.0503,0.611086666037613,1699.4430974106567
3754.9138,0.6124736934554372,1252.4488742429253
3755.7776,0.6133891279837584,1331.8617341009046
3756.6438,0.6134336045112673,1603.6670585564098
3757.508,0.6127966038832213,1492.0844227381228
3758.3745,0.6121424362655439,1913.6839506025838
3759.239,0.6120916334925522,1618.8716215409127
3760.106,0.612805182087573,1366.5797604599013
3760.971,0.6140170537363284,1555.67675989194
3761.8362,0.6153475373279896,1867.0123400522498
3762.7036,0.6165210946231334,1659.7049752232833
3763.5693,0.6173659693421831,1512.5537555362664
3764.437,0.6177317646912592,1807.6977876204237
3765.3032,0.6174073608783387,1392.2260533986362
3766.1714,0.616169316321548,1403.956504446496
3767.0378,0.6139613914810454,1630.2835702879045
3767.9043,0.6110801790320889,1423.4259630870217
3768.7732,0.6082044906980713,1571.3714745526506
3769.6401,0.6061521167559292,1575.4584558923916
3770.5095,0.6053833701744751,1679.0309955583311
3771.377,0.6057503188593572,1531.144564358169
3772.2466,0.6065935017877846,1320.6882492282714
3773.1145,0.6071712651892255,1795.6044555411415
3773.9824,0.6070918668875126,1407.7687172424696
3774.8528,0.6064371697651345,1582.458802901425
3775.721,0.6055546766482652,1907.7496343825715
3776.5918,0.6046686917234073,1886.926505385137
3777.4604,0.6036830504453745,1562.611169179464
3778.3315,0.6022760152610368,1247.438057586627
3779.201,0.6002383981547941,1553.3438279669163
3780.0703,0.5977023130198916,1496.9306782117756
3780.942,0.5951808459683773,1434.5367640552806
3781.8118,0.5934263475641363,2045.2842709630334
3782.6838,0.5931077592803874,1938.6236846060576
3783.554,0.5945283035960693,1722.5120571642667
3784.4265,0.5974288651772566,1662.6574998738727
3785.297,0.6009911606597068,1476.6949488377
3786.168,0.604165561218929,1609.4989850439185
3787.041,0.6060667462230733,1571.7578249177598
3787.912,0.6063000828025447,1403.5042049675142
3788.7856,0.6050419295847285,1574.9522863212546
3789.6572,0.6028271552422014,1344.5367505208826
3790.531,0.6002474159709886,1503.6214392823842
3791.403,0.5978005588909775,1493.7971809781764
3792.2754,0.5957928717705694,1558.0931593971814
3793.15,0.5943603191027408,1443.731788200288
3794.0225,0.5934838194307062,1524.6358002981083
3794.8972,0.592980140243871,1646.7490379849098
3795.7703,0.5925710741619287,1751.7707901416197
3796.6455,0.5920058076289844,1463.7829113681355
3797.519,0.5912467910643765,1563.814670088379
3798.3926,0.59052593997199,1683.8931281215475
3799.2686,0.5901886999161203,1553.913522967283
3800.1426,0.5904104931594584,1848.951650069273
3801.0188,0.5910411429256776,1711.7970904007366
3801.8933,0.5917563236500905,1570.5053727873158
3802.77,0.5923924170810286,1854.9041799848271
3803.6448,0.5930961415553518,1920.048632757262
3804.522,0.5941446078187977,1470.101137055491
3805.3972,0.5955793636011049,2056.218142587651
3806.2727,0.5970998285227656,1559.3757207731362
3807.1504,0.5982899135560743,1344.1487945306296
3808.0261,0.5989460738219465,1734.5956925418527
3808.9043,0.5991955476163856,1988.818067794039
3809.7805,0.5992889170278985,1578.9435062904788
3810.659,0.5993523513712472,1686.427012749835
3811.5356,0.5993104039052667,1633.3139419994036
3812.4126,0.5990293489033613,1489.9165888801995
3813.2917,0.5985103523378735,1511.093540299259
3814.169,0.5979489117584327,1550.4275631459882
3815.0483,0.597591507885462,1359.1239273556578
3815.926,0.5975733058662097,1266.9551169122828
3816.806,0.5978704603441838,1508.021855186244
3817.684,0.5983534894576507,1781.7861013631546
3818.5623,0.5988001553826441,1428.0583910402165
3819.4429,0.5988653108953642,1995.3086860606784
3820.3215,0.5981618545460624,1512.34185150078
3821.2024,0.5964867067285635,1402.5089036846282
3822.0815,0.5940352511100098,1645.6897583815792
3822.963,0.5913379884522182,1834.9981123252521
3823.8423,0.5890199270234985,1829.8063952657221
3824.722,0.5874418501962484,1642.9594916276424
3825.604,0.5866027400903763,1351.3698211409255
3826.4841,0.586252803306001,1850.0439900869385
3827.3665,0.5860765873917885,1611.7448581407562
3828.2468,0.5858102798538612,1675.2737408616397
3829.1296,0.5852326277762679,1463.7305445196153
3830.0105,0.5841503429058146,1848.6615584380488
3830.8916,0.5824054750129307,1998.2525600112508
3831.7751,0.5799132489899023,2230.610385885087
3832.6565,0.5767282564031697,1840.644244654966
3833.5403,0.573022155145322,2211.5811506803793
3834.4224,0.5691504542479404,1703.4278569065887
3835.3064,0.5655490697116806,1994.6895550579063
3836.1887,0.5627025285008886,1703.1028391193522
3837.0713,0.5609488573643296,1634.2030240097251
3837.956,0.560362616574211,2137.6037875285033
3838.839,0.5606942045797241,1752.4280293727475
3839.7244,0.5615124708237649,1832.7446827041258
3840.6077,0.5625110254284877,1662.5255263078366
3841.4932,0.5637601018341746,1801.3267894676658
3842.377,0.5656479236568143,2439.335566396236
3843.261,0.5686102528181438,1760.994550254974
3844.1472,0.5728047592828034,1629.2808431223307
3845.0315,0.5778830598452664,1724.1499729576096
3845.9182,0.5830939231979113,1995.139973255194
3846.803,0.5874688202170597,1632.107514143533
3847.69,0.5903517693766148,1597.1994456161879
3848.5752,0.5916670874052147,1613.5289816298086
3849.4604,0.5919729475766764,1852.9742068222793
3850.3481,0.5920860294224243,1518.0283577621162
3851.234,0.592639159167507,1509.043291703268
3852.122,0.5938114694452525,1818.5746005005917
3853.0083,0.5953395005739957,1667.0758928390026
3853.8967,0.596783474401665,1470.206868139716
3854.7832,0.5977951295239606,1317.393904568762
3855.6702,0.5983132656646608,1493.1848582626546
3856.559,0.5985123873362407,1629.3988160896654
3857.4463,0.598593602033302,1853.0598237888257
3858.336,0.598571031758404,1547.1019946839033
3859.2234,0.5982673443647333,1576.661057109494
3860.1135,0.5975421588229491,1490.1587307746386
3861.0015,0.5965125787050211,1615.9322187970076
3861.8896,0.5954707503887061,1835.5947370607273
3862.7803,0.5945923418917515,1737.5456360147493
3863.6687,0.5937460834853088,1547.2753991899353
3864.5598,0.5925853719883623,1704.95926362268
3865.4487,0.5908561473358115,1522.9334463532036
3866.34,0.5885556244958868,2057.6248620970046
3867.2297,0.5859216903806276,1542.5870668377152
3868.1213,0.5831948219986867,1983.6278968778065
3869.0112,0.5804919892134289,1679.3216544768172
3869.9014,0.5777809131244115,1416.5765500206617
3870.7937,0.575070787333465,1806.008010719763
3871.684,0.5725513045443166,1919.3030061202421
3872.577,0.570429861846518,1870.2625536957955
3873.4678,0.5687250975941813,1830.5104893910539
3874.361,0.5671556233724744,1586.921694696198
3875.2524,0.565413042962167,1727.499734949622
3876.1438,0.5634286498889457,2020.3847448237207
3877.0376,0.5614141553442219,1536.148276839327
3877.9297,0.5596246932481408,1990.0641964955266
3878.8237,0.5580410899232808,2039.77016904769
3879.716,0.5563327287642802,1955.0727853617175
3880.6108,0.5540159332482976,2165.5129708760924
3881.5037,0.5507929926044411,1938.2008520228535
3882.3965,0.546728392941264,1892.1985400264582
3883.2917,0.5422312047445459,2512.0443634505373
3884.185,0.5378606536965596,1896.4865123673783
3885.0808,0.533983773781459,2101.74954185082
3885.9746,0.5307540902341382,2240.5043242503507
3886.8706,0.5281135048747699,2115.7827269888407
3887.765,0.5259876021181031,2217.353758946174
3888.6592,0.5243360972266179,2266.059366286922
3889.556,0.5232174284102048,1922.7206438024375
3890.4507,0.5227969164830015,2428.1098038268683
3891.348,0.5232798667123628,2145.1913145728313
3892.243,0.5248096173293026,1834.5120166343343
3893.1406,0.5273679975154699,2091.5833687327695
3894.0361,0.5307089114346976,2023.8738250560777
3894.932,0.5345057890840169,1937.9876873000787
3895.83,0.5385348380586441,1830.7612304833115
3896.7263,0.5427710317438786,1919.6501341280705
3897.625,0.5473729058876465,2067.179339178645
3898.5215,0.552336852883169,1907.4607725995
3899.4207,0.5573929455107388,1503.02044526862
3900.3176,0.5619722042647285,1770.4944038089372
3901.2148,0.5656247999354577,1731.2682936683746
3902.1145,0.5683043931945957,1705.87998215763
3903.0122,0.570446571640922,1660.087049719711
3903.912,0.5727780035517572,1424.5609284487039
3904.8103,0.575881750843956,1928.6546555909172
3905.7107,0.5799573029095114,1777.6518754540296
3906.6094,0.5847179940808691,1502.8190059477877
3907.508,0.5896089017816255,1999.201025917211
3908.409,0.5940529294813066,1818.5031722581514
3909.308,0.5976897613541476,1791.4826490273992
3910.2097,0.6006001759829782,1624.9282699093937
3911.1091,0.6031557420056978,1497.3552998303962
3912.011,0.6057810270358653,1727.3377485958683
3912.9111,0.6086402507951134,1654.6590632668979
3913.8113,0.611702283318271,1445.622499906959
3914.7136,0.6149287720990253,1550.6844390686267
3915.6143,0.618291700816371,1663.8198376518721
3916.517,0.6216088396072922,1772.8306877452474
3917.4182,0.6243429424310403,1388.543278388314
3918.3215,0.6259078504621983,1275.4138894346927
3919.223,0.6261284819801883,1622.3777645027988
3920.1245,0.6255116378064808,1592.2022486365136
3921.0286,0.6249315463236992,1514.6351564979684
3921.9307,0.6250600270894704,1454.7685004941432
3922.835,0.6259954948938381,1396.8244708000232
3923.7373,0.627354422933295,1525.160293198752
3924.642,0.628634697890222,1582.9662696764692
3925.5452,0.6294537095164858,1704.0691844403655
3926.448,0.6296198566577821,1307.3191917056167
3927.3535,0.6290894222580337,1442.9138092764354
3928.257,0.6279722506795421,1369.815412222255
3929.1628,0.6264856494444441,1500.850376285908
3930.0667,0.6248373219543865,1363.7368600298662
3930.9731,0.6230629310734604,1595.2971189222314
