wavl,flux,ivar
3566.9744,1.0503201907484168,1207.5517741662852
3567.795,1.055934146308057,759.4789999761755
3568.6177,1.0596475089411872,1081.5777542710734
3569.4385,1.0601958684560693,840.5800570848756
3570.2617,1.057695672864801,801.2652133529081
3571.083,1.0532182682506468,876.7044228599959
3571.9065,1.0481507901339844,821.078458227816
3572.7283,1.043716490454778,1103.8019511658988
3573.55,1.0405344355083244,865.0222990357105
3574.374,1.03861359767987,1003.6408017184416
3575.1963,1.0375972307281764,840.3577691832512
3576.0208,1.0370339298687064,1174.9314080863353
3576.8435,1.036537756205062,1339.7242399904844
3577.6682,1.0357606874116767,922.9025921246911
3578.4915,1.0344083636482122,1073.631965336939
3579.3145,1.0322902805473033,1174.3895270183307
3580.14,1.0293662626366116,916.2964968427913
3580.9636,1.0258617618169001,895.9076332573242
3581.7893,1.0223409234388403,727.9760615437326
3582.6133,1.0197241992941986,1150.6836675883335
3583.4395,1.018846396558338,923.257270960655
3584.264,1.019992955798576,1184.2452486714433
3585.0884,1.0227074384485197,805.2497068723957
3585.915,1.0260919194980425,1009.5374120379232
3586.74,1.029182481042668,940.8917357630723
3587.5671,1.0312856642459867,848.199110630027
3588.3923,1.0320947178891355,1025.6752929128825
3589.22,1.0318336865804412,999.603639401538
3590.0457,1.0311534565133635,1102.0844200606925
3590.8716,1.0307435014497695,1022.476265765919
3591.6995,1.030844428500745,1000.4451280787082
3592.526,1.0310414767961642,1002.0934428608596
3593.3542,1.0305093424221625,896.6333417974413
3594.181,1.0285110257324117,954.4487083238745
3595.0098,1.024803520611808,939.6681126502666
3595.8367,1.0198552230788922,1107.7614022660473
3596.6638,1.01467468431653,1127.1788030712912
3597.4934,1.010461159134496,1050.305781691495
3598.3208,1.0081186082929934,1037.923582456604
3599.1506,1.0077947971290988,985.8565659605171
3599.9788,1.0089590698921047,1063.8850629894225
3600.8088,1.0108267426248856,961.5367294738325
3601.6372,1.0128246685242661,1029.6389572997891
3602.4678,1.014705717979266,1036.9310105602542
3603.2964,1.016217190046334,1091.439369237559
3604.1252,1.0168965828172372,952.8844842967317
3604.9565,1.0162373721019864,830.2186449995972
3605.786,1.0141941534011203,977.0727655365961
3606.6172,1.0114699337932955,1290.6590721658165
3607.447,1.0092984700291134,1175.7376768337213
3608.2788,1.008688940649566,1231.3354718094902
3609.109,1.009744501266342,1034.9293443600964
3609.9392,1.0115217422977791,1114.7704240064988
3610.7717,1.0126439972510657,1026.6475573548196
3611.6023,1.0121568155056255,1185.030982282892
3612.435,1.0099988840547576,1145.3725579628438
3613.266,1.0068457367429244,1027.368848118109
3614.0994,1.0036252531173322,1099.3908627100059
3614.9307,1.0012108919313791,1206.9958291215667
3615.7625,1.0001661823456112,1100.3564265274224
3616.5962,1.0006673448975736,1081.4106507713088
3617.4282,1.0024548785284035,1022.8817760887916
3618.2625,1.004927323308813,1115.7293014393308
3619.0947,1.007274671428753,611.6883635017294
3619.9292,1.008744681822792,951.2939062174313
3620.762,1.0088522601486143,981.2865502583245
3621.595,1.0075526665741903,883.613624611808
3622.4302,1.0051665235717933,1060.2156281221398
3623.2634,1.0022215969359816,1087.8166891177464
3624.0989,0.9992319321409076,1212.2251866059455
3624.9326,0.9966883493481888,1132.3314660249268
3625.7686,0.9950250630848795,907.9517934726708
3626.6028,0.9946223109437161,931.4152473616709
3627.437,0.9955738766103613,1046.5657517521754
3628.2734,0.9974592204521754,1065.7594111593003
3629.1082,0.9993239551165293,968.454404382092
3629.945,1.0001577271605662,858.2471692796164
3630.78,0.9995055869502195,1045.5126816419152
3631.6174,0.997765673964709,1231.4460868206995
3632.453,0.9959179736727021,1037.003979762382
3633.2883,0.9949732425504579,1122.9328886845801
3634.1262,0.9956500843713297,1095.025388865742
3634.9622,0.9982238385028184,1195.9394834558575
3635.8005,1.0023907308670874,915.8970969559647
3636.637,1.007092314755941,1320.4040831618074
3637.4756,1.0108697832587603,964.7787175145806
3638.3123,1.012579704699708,870.3220121464121
3639.1492,1.0121942312204975,944.5962403087807
3639.9885,1.0107024600370753,1214.152207707484
3640.826,1.0093221258434713,1098.376796176384
3641.6653,1.0086805454662013,1014.3937886214258
3642.5032,1.0087568866816075,1033.4345615506347
3643.343,1.0093368619908099,1360.0169674318581
3644.1812,1.0103414336720777,981.6468949290985
3645.0195,1.0117088534945784,1053.922446222862
3645.86,1.0131579080276767,969.0723001117211
3646.699,1.0142606771673304,819.8491360158224
3647.5398,1.0148011420127008,1102.883193367618
3648.379,1.0149191334766807,1087.3926824992288
3649.2202,1.0149303684577382,995.8526896899394
3650.0596,1.0150392495790042,1029.694601611823
3650.8994,1.0152408260649173,920.0585002989229
3651.7412,1.0153815068833925,900.1365434636398
3652.5813,1.015235064227537,1136.3175496949732
3653.4236,1.014583836583875,954.2986178443427
3654.2642,1.013364518962595,1143.7357450091768
3655.1067,1.0117917307500748,769.6755332795581
3655.9475,1.0103488352624648,1028.8076779605155
3656.7886,1.0095391585443103,1049.4706608557958
3657.6318,1.009639116637597,998.3967588875197
3658.4734,1.0105578397056971,1000.2071887222496
3659.317,1.011870453034174,1094.5155039612468
3660.1587,1.0129639800887227,869.7228512177218
3661.003,1.0133126038529874,972.1747184763573
3661.845,1.012729038691616,1026.6227740611184
3662.6875,1.0114837444817113,1037.3399223768904
3663.532,1.0101584114596265,849.4943479079687
3664.3748,1.0093062200549079,1130.5080545884643
3665.2197,1.0090265317647238,987.8734576668338
3666.063,1.0088041070502118,1021.2824507662075
3666.9084,1.0078133377139187,1022.5663704473928
3667.752,1.005593843906694,1080.3628737970087
3668.5977,1.0024593553681198,1137.4509341432588
3669.4417,0.9993073822994875,1030.6195239687331
3670.286,0.9969301643743378,1117.7712026112802
3671.132,0.995621348505536,1221.3378367507294
3671.9768,0.9952697935757017,1445.8903196894169
3672.8235,0.9956688266747568,844.2146028250746
3673.6685,0.9966568092858954,968.2244830861539
3674.5156,0.9979785369044846,1297.4558196042326
3675.3608,0.9991180805617005,1071.3799114262724
3676.2063,0.9994486778699264,1012.1016776508146
3677.0542,0.9985848647306826,967.8933168175346
3677.9,0.996673575990218,1143.8209380378112
3678.748,0.9942959372901553,1471.6775348160909
3679.5945,0.9921843284738258,881.9644499053192
3680.4429,0.9909324703819644,1135.0666178007689
3681.2896,0.9909496444879325,968.4817626309155
3682.1365,0.9923944220051577,977.7585226212004
3682.9856,0.9950756785486965,1228.357093475566
3683.8328,0.9983178771785771,1148.2149403132507
3684.6824,1.0011009714735535,1197.709639257092
3685.53,1.0023452699205193,1201.8142059202778
3686.38,1.0014320739957425,1081.9928183473517
3687.2278,0.9985433868515651,985.5694086531404
3688.0762,0.9946284183693622,1064.708573075079
3688.9265,0.9909244520481906,1099.057791510544
3689.7751,0.9883223314961153,1128.1493867545696
3690.626,0.9869467279945223,1109.7716089715966
3691.475,0.9863670819635909,942.3722933521271
3692.3264,0.9860460703840148,1085.9205339744722
3693.1758,0.9857058091123672,1035.1043460835822
3694.0254,0.9853451678353113,1158.6644970339726
3694.8772,0.9850970981236566,920.6285553253819
3695.7273,0.9851161773329017,1063.6495605547375
3696.5793,0.9854921997513695,1293.1036088629378
3697.43,0.9861131519497469,1115.7340180194585
3698.2825,0.9865569977321161,1311.4322819104461
3699.1333,0.9861936663294995,1105.5658754367446
3699.9841,0.9845734466992782,1258.3567248180216
3700.8374,0.9818304948562767,1082.5871396362757
3701.6887,0.9788092182250415,1237.3639889281408
3702.5425,0.9765938595736783,1411.3823330307841
3703.3943,0.9758648418862886,1214.7352893768234
3704.2483,0.9764468753279649,1147.10764418123
3705.1003,0.9775551924315502,983.7818986493413
3705.9526,0.9784255361881122,1064.9627311639044
3706.8074,0.978721653832773,1147.5480682953798
3707.66,0.9784333426802877,1129.5367120792002
3708.515,0.9775612008786907,1097.448952212959
3709.3682,0.9760454381482218,1290.0981968306935
3710.2234,0.9739522946588192,1059.0855956689372
3711.0771,0.9716243564704019,1098.0454233490796
3711.9307,0.9694707474957831,1084.1464256633278
3712.7866,0.9676605424098268,1201.9775400870985
3713.6409,0.9660307223672263,1179.3922092210776
3714.4973,0.9642388772326188,1185.3589576923075
3715.3518,0.9620809304454243,1052.4651399197778
3716.2085,0.9596195239245001,1099.9685238256418
3717.0635,0.9571926177137761,1159.1253137417068
3717.9185,0.9551667027494917,1139.7716456702208
3718.776,0.9536892877577882,1121.579398007387
3719.6313,0.95260472382257,1070.665338585928
3720.489,0.95164289291222,1079.7331186141348
3721.345,0.9507915244954765,1157.5060991542348
3722.2031,0.9504201497168321,1406.0113759212245
3723.0593,0.951086970629431,1104.781063587326
3723.9158,0.9531426818445643,1314.0623184316028
3724.7747,0.9564361148904493,1180.5638019081364
3725.6316,0.9602296378326729,1030.7277263734438
3726.4905,0.9635234413021574,1051.9355241101864
3727.348,0.9654153037691267,1061.9401656481127
3728.2073,0.9654510629015414,1153.1651685303132
3729.065,0.9636763548765052,1071.4720560542748
3729.9229,0.9605923908786091,1113.958069644967
3730.783,0.9570305893045608,1458.1084240114465
3731.6414,0.9539390358867413,1299.383265990333
3732.5017,0.9519395533241802,1052.3345743121313
3733.3604,0.9510615896228333,1225.9056066744147
3734.2214,0.9507165353569289,1093.5482813079698
3735.0803,0.9500650949162304,1257.2588999818784
3735.9417,0.9484647559070665,1075.2911986920767
3736.8013,0.9457938953896206,1226.9157223920683
3737.661,0.9424407813548933,1169.8171653789714
3738.5227,0.9390870701677104,1062.9381326066698
3739.3828,0.9364702110040553,1360.4331145928704
3740.245,0.9351258486248288,1101.3226554826254
3741.1055,0.9352654128045839,1198.6061100268882
3741.9683,0.9366290366548603,1342.0702313637585
3742.829,0.9385018773257259,1116.2731183724668
3743.69,0.9399778043040836,1078.367818856993
3744.5532,0.9403361261133107,1222.793000851762
3745.4148,0.9393691639596419,1269.17793158275
3746.2786,0.9374763677929765,1057.5070019014563
3747.1404,0.9354718633599024,1319.77211858425
3748.0044,0.9341729952615984,1069.8289063068203
3748.8667,0.9341129085237344,1066.4204094352046
3749.729,0.9353949113584145,1283.1980212231765
3750.5938,0.9376908811692631,1427.0458251296661
3751.4565,0.9402116451660423,1179.7737914704144
3752.3215,0.9419359519333322,1186.943179344124
3753.1848,0.9420751646045924,1099.5138617596149
3754.0503,0.9406235613427604,1276.6965272382783
3754.9138,0.9383898783492581,1285.8873302129157
3755.7776,0.9363973920207448,1354.684908984228
3756.6438,0.9351725813503811,1130.6657102208528
3757.508,0.9344874629158711,1307.4873224501728
3758.3745,0.9336948335116189,1079.619708848868
3759.239,0.932365456442305,1215.3852838950602
3760.106,0.9306094356043854,1401.6862785636347
3760.971,0.928921458019485,1265.884550212744
3761.8362,0.9276865424493334,1345.5988224282864
3762.7036,0.9269116135711927,1154.2011054276313
3763.5693,0.9263316649807244,961.2702839973111
3764.437,0.9256904545111181,1226.8582572369944
3765.3032,0.9249268318992309,1391.930201381953
3766.1714,0.9241569787537117,1098.6122483540316
3767.0378,0.9236116336252553,1196.486441314899
3767.9043,0.9235077439351603,1341.9512827560084
3768.7732,0.9238550838657709,1236.5927142997484
3769.6401,0.9242985404817884,1191.1102284440467
3770.5095,0.9242778291596518,1112.1042704880524
3771.377,0.9234657358859865,1155.017275128463
3772.2466,0.9220858236397109,1376.929871571411
3773.1145,0.9207767950777961,1388.659716543834
3773.9824,0.9201044098560679,1353.0188327001306
3774.8528,0.9202565110500391,1238.5013609858865
3775.721,0.9211262016738092,1183.4432517357095
3776.5918,0.9226092170656275,1263.291793432095
3777.4604,0.9247030570701472,1208.9580968244763
3778.3315,0.9273740858707986,1106.1436707943392
3779.201,0.9302914401593704,1203.8176730444538
3780.0703,0.9328555968545584,1168.2393257622093
3780.942,0.9344151901040268,969.6345453705756
3781.8118,0.934545034228539,1442.5735950460432
3782.6838,0.9331931152134579,1147.8083531044974
3783.554,0.9306338937598582,1214.8516225954388
3784.4265,0.9273610332200123,1319.5106585105646
3785.297,0.9240740725343647,1317.749970500372
3786.168,0.9215111023720765,1422.9257288982167
3787.041,0.9202626034767158,1327.2373996108333
3787.912,0.9205262540274657,1344.6156692870202
3788.7856,0.9219564928104786,1214.3133033730592
3789.6572,0.9237321284658997,1283.5315442654928
3790.531,0.9248865056373241,1156.5976717892804
3791.403,0.9247179658924551,1085.3894965238628
3792.2754,0.9230820977419792,1066.399894112253
3793.15,0.9202532736749418,1258.7116461903925
3794.0225,0.9165757268201132,1190.0497241760684
3794.8972,0.9121785712071105,1256.3923323456088
3795.7703,0.907192712108862,1238.5038295646013
3796.6455,0.901975929763074,1393.0671458550246
3797.519,0.897257841307149,1403.9124174628864
3798.3926,0.8937912297866529,1270.9323378667973
3799.2686,0.8920596212063733,1588.9718748269122
3800.1426,0.8921267976518866,1120.6805450080703
3801.0188,0.8936552373835808,1217.4403351333658
3801.8933,0.8960538177958013,1250.997855297868
3802.77,0.8986927749881047,1266.3098979464937
3803.6448,0.9011012299826736,1390.089168887731
3804.522,0.9032056935416375,1195.252216609323
3805.3972,0.9052891611445127,1577.5362542760156
3806.2727,0.907792238585496,1176.9149817170894
3807.1504,0.9109724947617298,1237.1565271629727
3808.0261,0.9146988329646762,1227.7588255769674
3808.9043,0.9185583050827107,1211.6605481645643
3809.7805,0.9219483095063301,1104.536352923252
3810.659,0.9242971090646468,1233.731094856845
3811.5356,0.9251737339563676,1247.3111788703045
3812.4126,0.9245480003326765,1164.8315968976235
3813.2917,0.9228740557120838,1131.109241263283
3814.169,0.9209147601854154,1319.1756935735564
3815.0483,0.9192732718324667,1407.357579551814
3815.926,0.9181278075275449,1595.8474842697233
3816.806,0.9172955033024838,1318.2622613096426
3817.684,0.9165264907162076,1264.9118773017556
3818.5623,0.9155925824685877,1261.4261596771298
3819.4429,0.914240636571794,1292.5471420872402
3820.3215,0.9122904952833432,1252.9547851618495
3821.2024,0.9098398496614011,1334.49570478335
3822.0815,0.9073150706409968,1300.8862732310758
3822.963,0.905049991794812,1306.5805546528054
3823.8423,0.9028885958798237,1186.7570724252582
3824.722,0.900112577231352,1337.015986609679
3825.604,0.8958637673916542,1339.1448805451125
3826.4841,0.8896950390037239,1179.560728194812
3827.3665,0.8817591439844277,1276.9646907332435
3828.2468,0.8728555297997116,1484.4246712700253
3829.1296,0.8639770919715152,1516.3554405222435
3830.0105,0.856079260243467,1750.1936530444902
3830.8916,0.8496033594076896,1360.709691291024
3831.7751,0.8444194956679805,1413.4067876653166
3832.6565,0.8399505232548881,1507.4644291885259
3833.5403,0.8354143285451004,1575.0427682557108
3834.4224,0.8303961391621628,1825.8874322573574
3835.3064,0.8251388432031908,2108.4421732209607
3836.1887,0.8206448301237904,1827.8551042748204
3837.0713,0.8181963319838156,1643.6737354733411
3837.956,0.8188061427849476,1490.4566267139699
3838.839,0.8227367395602998,1558.4348355142154
3839.7244,0.8294394856895434,1404.5724273725605
3840.6077,0.8377845956021136,1371.0804199875608
3841.4932,0.8466677980015043,1281.6867488901362
3842.377,0.8552810728469202,1456.371960050096
3843.261,0.8634106150049592,1488.962124950991
3844.1472,0.8712885960226461,1537.3970510265806
3845.0315,0.8792881594168631,1444.4105826291438
3845.9182,0.8877247261283463,1418.417807207213
3846.803,0.8964558437543242,1437.7542714188041
3847.69,0.9050860272729213,1087.6568542395146
3848.5752,0.9131067655335102,1347.6149147707263
3849.4604,0.9202970345721858,1357.1954254218433
3850.3481,0.9266833309967273,1111.7969834315027
3851.234,0.9323649809584797,1116.3254266423105
3852.122,0.9375537296668032,1356.383555606239
3853.0083,0.9424257423095526,1176.1068675874217
3853.8967,0.947095352849515,1234.8196638395916
3854.7832,0.9513737758873103,1059.1318951988603
3855.6702,0.9549221443275355,1072.0012044862287
3856.559,0.9575220201817085,1262.2927708610255
3857.4463,0.959325566543417,1088.0663748313025
3858.336,0.9607951282223168,1236.8608355457784
3859.2234,0.962295019030442,1154.3730530694718
3860.1135,0.9638190981396876,1168.255901314265
3861.0015,0.964973281813664,1131.229277606573
3861.8896,0.9652865041950239,1202.0570050612891
3862.7803,0.9644806530554393,950.1078659479939
3863.6687,0.9625879050654655,1315.7668769001555
3864.5598,0.9598249832353077,1198.646337940209
3865.4487,0.9564419557702646,1095.1234662858976
3866.34,0.9525269077270135,1066.2418159814258
3867.2297,0.9480557728278597,1175.6137426863665
3868.1213,0.9429029858114177,1117.8696892327866
3869.0112,0.9370179054551419,990.5400002546089
3869.9014,0.9304038794688965,1195.4502064253995
3870.7937,0.9231571827431935,1134.4039440101787
3871.684,0.91554298117076,1448.3559221658572
3872.577,0.90786887654271,1266.9550881223508
3873.4678,0.9005162245167342,1496.4812440730288
3874.361,0.893590191109235,1564.0386629034615
3875.2524,0.8869401177062601,1175.7302716179197
3876.1438,0.8801531626944231,1461.0347054638091
3877.0376,0.8728904502432827,1319.8682082702296
3877.9297,0.8651513195783276,1331.4701516493608
3878.8237,0.857047562144672,1411.9896228023608
3879.716,0.8485919875168337,1277.275664756672
3880.6108,0.8393420906115121,1487.4847703288006
3881.5037,0.8287312750831971,1496.3487120070336
3882.3965,0.816371362437613,1610.7729748218483
3883.2917,0.8024652086840355,1802.6672121742336
3884.185,0.7879462678188233,1684.2040464127692
3885.0808,0.7738787345114249,1727.7153229805435
3885.9746,0.7612388826207734,2128.3016132765642
3886.8706,0.7503621477774586,1841.2536296661517
3887.765,0.7413063576240592,1946.017957179085
3888.6592,0.7341178924845294,1831.2792549476842
3889.556,0.7292771538504323,2560.882334376781
3890.4507,0.7276542490472498,2172.575306490478
3891.348,0.7299798025436928,2442.2847972944155
3892.243,0.7363952987615556,2204.6811206528405
3893.1406,0.7463743750787488,1456.8557259895927
3894.0361,0.7587948681412947,1823.1875152762677
3894.932,0.7724286637557964,1912.3655836554003
3895.83,0.7861529110367779,1661.5178367028388
3896.7263,0.7990744181885145,1690.9756512491263
3897.625,0.8109424237938445,1638.9038087658332
3898.5215,0.8219381701277112,1323.193269479822
3899.4207,0.8327704182280982,1391.0530518300372
3900.3176,0.8441201538455998,1487.8826573025563
3901.2148,0.8564896883452121,1547.3630345195445
3902.1145,0.8698969906015704,1393.659880008796
3903.0122,0.8838401153173662,1380.0518920221316
3903.912,0.897826053687317,1487.5569346667262
3904.8103,0.9113739453062916,1321.3046993089365
3905.7107,0.9242742232165598,1409.6550429236104
3906.6094,0.9362448001260563,1124.1595216970434
3907.508,0.9471156066877338,1242.391761206345
3908.409,0.9568798884844252,1266.683078174876
3909.308,0.9657694585223057,922.4705857606085
3910.2097,0.97437403270348,1233.7712629746643
3911.1091,0.9832157754498192,1136.7204873955282
3912.011,0.9925916538113101,1122.6873161470357
3912.9111,1.002233478263209,1113.8878843017142
3913.8113,1.011596417601843,1062.6847306152285
3914.7136,1.0200941335395155,1094.1521461895957
3915.6143,1.0272750698927746,873.2132621141114
3916.517,1.0330596759275719,926.2210953981696
3917.4182,1.0376209253680548,1115.2503340792473
3918.3215,1.0413793032742575,1081.953504652158
3919.223,1.0447486724504766,948.2870563696371
3920.1245,1.048085953468708,1055.4903334927114
3921.0286,1.0516383225058907,960.8909103802539
3921.9307,1.0554894163654884,948.5957614323809
3922.835,1.0595446234754915,970.8801571381954
3923.7373,1.0634308502673984,891.8647071885545
3924.642,1.0666863031531784,862.9832248403603
3925.5452,1.0689273370490788,1005.9734180635758
3926.448,1.0700992844032065,860.5206603299669
3927.3535,1.070435624358785,906.057552510314
3928.257,1.0702316753120087,1008.8190071717521
3929.1628,1.0695787340671248,958.1857556334126
3930.0667,1.0682675124044798,871.3044519761282
3930.9731,1.0658969934106235,963.2412358235086
