wavl,flux,ivar
3566.9744,0.999613475631248,509.99872973624946
3567.795,0.9976721253609356,383.3952381637611
3568.6177,0.9947148723798277,488.2276050449375
3569.4385,0.9913006441259893,339.0717087234755
3570.2617,0.9878505449550037,470.63081761286514
3571.083,0.9847148224610812,419.22783928215074
3571.9065,0.9822357812079331,454.02992413170125
3572.7283,0.9806746022531628,483.5254912060891
3573.55,0.9798626676868303,475.19653975672816
3574.374,0.9792283167694543,427.2532060185334
3575.1963,0.9782343902049778,484.96725712227453
3576.0208,0.9768144461319256,525.6230759355499
3576.8435,0.9754249611227326,404.47128679446814
3577.6682,0.9746572887989755,411.1929727961072
3578.4915,0.9747959312752533,379.2650479416915
3579.3145,0.9755435700182972,465.38336863720895
3580.14,0.9761348906901326,456.16428815402736
3580.9636,0.9757540267591749,540.9110087205493
3581.7893,0.9740483532994038,442.62678622531854
3582.6133,0.9714133129379864,417.6285275741051
3583.4395,0.9687966277710346,341.50613097635016
3584.264,0.9671636312890783,473.93905339545955
3585.0884,0.9668715323471293,501.55666164660624
3585.915,0.9676144694578274,423.999819438634
3586.74,0.9688563981501036,443.7311732192804
3587.5671,0.9702572983864699,416.3178737540667
3588.3923,0.9715760419447863,596.7245165922548
3589.22,0.9724020807152127,458.8267159634003
3590.0457,0.9721811216239493,535.1035757018752
3590.8716,0.9706347527996408,476.28043869630227
3591.6995,0.9679832960744965,457.36855437236215
3592.526,0.9647659099401337,561.5627750859763
3593.3542,0.9614057098905273,429.4351653299728
3594.181,0.9580964807156169,500.75840258475637
3595.0098,0.9548961865911626,416.8393986558935
3595.8367,0.9519738672406451,554.3764738497403
3596.6638,0.9494870984138767,507.5456942293091
3597.4934,0.9473609648899147,479.7970544041735
3598.3208,0.9452699874330741,496.4358367837279
3599.1506,0.9430233439774514,577.5444139899872
3599.9788,0.9411188059461445,479.25395211115307
3600.8088,0.9406011247070913,496.22989070300895
3601.6372,0.9422553668704253,504.98512172331147
3602.4678,0.9458070813760876,435.5314029249083
3603.2964,0.9499603919710308,487.3388302027965
3604.1252,0.9533200047723025,469.9543285188323
3604.9565,0.9551587667271692,536.065888925621
3605.786,0.9555028609276499,616.7549372099611
3606.6172,0.9547036418039654,462.7639519947656
3607.447,0.9530144283011006,429.416988761502
3608.2788,0.9505425752179382,408.4879008846696
3609.109,0.9474614603613604,529.5437360990381
3609.9392,0.9440850501726329,587.3628138884711
3610.7717,0.9408108886677297,468.3108537715023
3611.6023,0.9380123053664728,422.78888853670094
3612.435,0.9359121604969998,495.221417729849
3613.266,0.9346248031457265,556.7689001225874
3614.0994,0.9341250952428946,540.7526826341222
3614.9307,0.9343103628556096,490.80005720094056
3615.7625,0.9350631046307247,442.1923541233225
3616.5962,0.9362981624165302,464.4091107636392
3617.4282,0.9378728726312,508.60673964759957
3618.2625,0.9394816763754128,467.9897891925411
3619.0947,0.9406156672492937,456.1487303418546
3619.9292,0.9407370338817896,495.5592717897217
3620.762,0.9394658909277082,543.6188986642724
3621.595,0.936756249392243,479.1527277156145
3622.4302,0.9330041345816121,549.1585126729162
3623.2634,0.9290770198005325,522.1420750768921
3624.0989,0.9259393779426257,586.0348434176913
3624.9326,0.9241707466230668,496.21354837096794
3625.7686,0.9235357546945531,489.10803595721933
3626.6028,0.9232245503037704,419.4377849951764
3627.437,0.9224930543305319,516.5416517058201
3628.2734,0.9211409554493334,658.6784363704513
3629.1082,0.9193583032386354,537.5728937778697
3629.945,0.9171544914727291,480.04270430079157
3630.78,0.9141506638415245,580.8684946486852
3631.6174,0.9098849678516017,496.7788784426341
3632.453,0.9044041895984878,581.4383008023163
3633.2883,0.8982850954258028,499.2230842041494
3634.1262,0.8922201411490877,638.4660651673031
3634.9622,0.8866033350622747,487.21578323264754
3635.8005,0.881417967915363,456.12361944603697
3636.637,0.8767862535558595,513.9988922821628
3637.4756,0.8731462154905627,655.0547790595151
3638.3123,0.8710277724436639,610.440614925492
3639.1492,0.8703485963713302,725.8108986122386
3639.9885,0.8702136427345577,556.7094652443598
3640.826,0.8694108825938881,546.790732311433
3641.6653,0.8672590232234876,460.46951079882604
3642.5032,0.8640879737941948,517.8901995543974
3643.343,0.8609389646741672,563.0452714712103
3644.1812,0.8588826246295493,611.5482336026636
3645.0195,0.858332240564125,1355.7014376958812
3645.86,0.8589226015519523,568.7063325897395
3646.699,0.859904051156868,570.9911978638322
3647.5398,0.8608046031576134,561.9307566609267
3648.379,0.861735766470467,562.3115190053848
3649.2202,0.8630911831026826,615.900344760688
3650.0596,0.8649191866354095,538.8832465546485
3650.8994,0.866700056191469,674.2002663205949
3651.7412,0.8676810075174874,503.90776605068487
3652.5813,0.8674445764461264,514.6368841225909
3653.4236,0.8661914899677535,635.7875065723647
3654.2642,0.8645283043750961,585.4336938969561
3655.1067,0.862957001413614,603.6788878225442
3655.9475,0.8615417274053021,489.0674202685405
3656.7886,0.8599829384229974,630.8324442391599
3657.6318,0.8581115275088717,542.8330362858445
3658.4734,0.8563230553419392,511.9491348193842
3659.317,0.8554685095659404,731.4645147079932
3660.1587,0.8563201363927252,668.5937616644255
3661.003,0.8590044325616637,584.4440359662882
3661.845,0.8628693829344998,465.348232278578
3662.6875,0.8668982821698682,607.99088720119
3663.532,0.8701839953863042,562.6609470907711
3664.3748,0.8721879615444207,672.0579212396957
3665.2197,0.8727576713380827,525.6796747846608
3666.063,0.8719692963243072,502.73286542442827
3666.9084,0.8701189012362808,665.7695056934687
3667.752,0.8677887132567834,603.6031349649766
3668.5977,0.8657433485398367,669.4606140942974
3669.4417,0.8646764874250491,654.1772047618657
3670.286,0.8648310329891667,626.866449185101
3671.132,0.8658785432894743,511.3444709976499
3671.9768,0.8670837340573263,672.3315780069831
3672.8235,0.8677229561120149,547.5294429881478
3673.6685,0.8674517126464077,591.2381391398002
3674.5156,0.8664317456274534,461.0352713356549
3675.3608,0.8651173312868262,558.637212340061
3676.2063,0.8638349886733868,589.9870190841252
3677.0542,0.8625164601452685,612.8046747445492
3677.9,0.8608138199616494,645.7042147516357
3678.748,0.8584609995678615,563.7604591664602
3679.5945,0.8556262179008661,562.9337593315198
3680.4429,0.8528289029959277,605.5014520177722
3681.2896,0.8506258372085082,720.6557748377962
3682.1365,0.8491947925608799,659.2947381453272
3682.9856,0.8483073735366401,593.6294875711143
3683.8328,0.8476470829615836,544.6882647034055
3684.6824,0.8471149711993154,579.494958673095
3685.53,0.8467653099797142,563.3860739648471
3686.38,0.8464411524099361,668.5423732038623
3687.2278,0.8456885321966067,743.0352364749493
3688.0762,0.8441353529566772,524.0849437114496
3688.9265,0.8419280020629232,665.8591831576915
3689.7751,0.839718293081338,623.2474063202585
3690.626,0.8381962804359309,602.156427320651
3691.475,0.8378068943413189,733.6580561131029
3692.3264,0.8387691877915943,573.5989388180695
3693.1758,0.8411835216228999,674.5663957037744
3694.0254,0.8448935030178285,583.8579879640672
3694.8772,0.8492305134230151,585.2182732667387
3695.7273,0.8529992733845878,599.7276277078622
3696.5793,0.8550242743729946,549.3044942579392
3697.43,0.8547588172882138,536.7179452308889
3698.2825,0.8526668311903342,638.5981419842103
3699.1333,0.8499620312478623,729.35956040429
3699.9841,0.8478635853660614,647.5088923429386
3700.8374,0.8469400238187511,523.1077940125786
3701.6887,0.8469141217705262,675.7502530698628
3702.5425,0.8469628105779995,537.0314969508255
3703.3943,0.8462673113155955,614.0910196158302
3704.2483,0.844415061672355,610.6094266913358
3705.1003,0.841493112196086,636.6521145628999
3705.9526,0.8378583015763719,535.2586875865617
3706.8074,0.8338993742378269,598.2568480916034
3707.66,0.8299721626528396,793.3000556704087
3708.515,0.8263317882690467,654.8502407773939
3709.3682,0.8232140183738721,694.7349245397053
3710.2234,0.8207644696579736,769.7862813670151
3711.0771,0.8191542329732646,642.794345462867
3711.9307,0.8185805433684024,796.2537704163606
3712.7866,0.8191379617269975,772.0798194169054
3713.6409,0.8205329649618432,678.6182804592252
3714.4973,0.8220404801272156,621.5608052829542
3715.3518,0.8228561733630565,570.8806855249592
3716.2085,0.822647562354638,620.5511783204397
3717.0635,0.8217572555949312,607.8001094954986
3717.9185,0.8209213288529892,530.5533465661981
3718.776,0.8207261701545889,852.6370171737191
3719.6313,0.8211810308595455,654.4776174181717
3720.489,0.8216489798198794,569.0156347235131
3721.345,0.8211854725367121,627.2838930654649
3722.2031,0.8191049175081686,642.0381379316095
3723.0593,0.8154385361077029,766.2661951318518
3723.9158,0.8109126956831377,578.6466209816597
3724.7747,0.8065427699610411,593.7494115787667
3725.6316,0.8031899536601256,750.6647755605393
3726.4905,0.8012877035369548,510.78568866330204
3727.348,0.800967490872933,737.4510165336767
3728.2073,0.8020696959801824,654.5851796516584
3729.065,0.8040714278227152,823.7357817051918
3729.9229,0.8061427076054386,586.8637737341869
3730.783,0.8074753791168549,771.1470616609457
3731.6414,0.80767440785926,537.1151459054394
3732.5017,0.8068920803988124,724.7628226650659
3733.3604,0.8055884836762421,666.0729404412662
3734.2214,0.8041566679283934,638.7204637933154
3735.0803,0.8026907748987826,685.5372999747219
3735.9417,0.8009470658911617,589.9749149829898
3736.8013,0.7986248134083921,605.1407299072222
3737.661,0.7956872325955439,676.9010375945635
3738.5227,0.7925272128589955,601.3723245876009
3739.3828,0.7897946967340027,652.9729677806749
3740.245,0.7879324962945708,735.5723423584529
3741.1055,0.7869426981165417,695.5513624911245
3741.9683,0.7864176660074632,617.3977471646567
3742.829,0.7858440739147909,659.6092069861527
3743.69,0.784804983096551,588.2492293078922
3744.5532,0.7830032235791267,714.8215461181348
3745.4148,0.780236885685206,596.1800610890143
3746.2786,0.7764591898441942,780.7365586727225
3747.1404,0.7721406225125601,702.5202614886837
3748.0044,0.7685046152182478,621.1497866211527
3748.8667,0.7673947315403384,739.6478809828956
3749.729,0.7702399723276043,741.0561855074131
3750.5938,0.7769309022870173,656.9073365126052
3751.4565,0.7854334519417616,744.6549451656614
3752.3215,0.7929935398183775,656.3513255069945
3753.1848,0.7976747874915384,615.504701982579
3754.0503,0.7993930973063953,662.8249333389331
3754.9138,0.7993866524701694,811.0048971659268
3755.7776,0.7990225873547501,607.6994934462012
3756.6438,0.7988379634864274,645.508499132999
3757.508,0.7985212481704013,586.7882545224965
3758.3745,0.797542085929236,637.7186068829559
3759.239,0.7957486722638671,632.8712582571227
3760.106,0.7934444352473601,703.8255317660961
3760.971,0.7911538191207289,502.0260379228912
3761.8362,0.7892907025690131,665.4592278435523
3762.7036,0.7880257669224443,659.994477024741
3763.5693,0.7872619381015132,820.7156398338977
3764.437,0.7867009623087592,678.346530203081
3765.3032,0.7860412224688934,711.8472351018655
3766.1714,0.785126384070022,748.1267268468324
3767.0378,0.783974200732061,1011.7711137401708
3767.9043,0.7826813363603815,728.3446279350911
3768.7732,0.7813698029266953,638.1610857621896
3769.6401,0.7801644161216222,751.4897220062524
3770.5095,0.7790811905849568,621.1894406125334
3771.377,0.7779748974355054,696.7647452418646
3772.2466,0.7765978483054427,644.7718968053985
3773.1145,0.7748347040268145,750.749917600974
3773.9824,0.77281479127265,647.4922077764529
3774.8528,0.770853962900729,790.8270930924248
3775.721,0.7693120439893935,765.8313399643295
3776.5918,0.7684504904766064,607.0220326878307
3777.4604,0.7684596698174491,738.1908520632115
3778.3315,0.7694987984922174,735.6062792599276
3779.201,0.7717135386580598,718.845512900799
3780.0703,0.7751175406936015,696.8505308477658
3780.942,0.7793572252228466,844.491367645975
3781.8118,0.7835582676836556,621.432191684722
3782.6838,0.7866418810057015,887.5910250116441
3783.554,0.7877705929885879,712.3388141177669
3784.4265,0.7867821234091205,808.6848770220072
3785.297,0.7841676285030991,797.0613485806392
3786.168,0.7807573717431923,789.0747765116508
3787.041,0.777357998275745,706.1129468667772
3787.912,0.7745376016972396,671.4237226827872
3788.7856,0.7725083870663308,765.1989019213778
3789.6572,0.7713082865295805,659.7974974954079
3790.531,0.7709664397459614,675.2659542647424
3791.403,0.7715788401211476,659.2468203521727
3792.2754,0.7730972206463811,628.5017359911503
3793.15,0.7750927674809741,683.7898509107634
3794.0225,0.776734794131471,687.7809595002336
3794.8972,0.7771159273183681,758.329250520852
3795.7703,0.7756200957162175,604.9760098187922
3796.6455,0.7721979930724907,670.06241003393
3797.519,0.7674424638764636,740.1021381953002
3798.3926,0.7623191816646284,684.6581240392192
3799.2686,0.7577536194265702,646.2673689380429
3800.1426,0.7543035179154727,735.1188735011253
3801.0188,0.7520029567912182,751.5108046335343
3801.8933,0.7505844570777382,758.369155548828
3802.77,0.7495720996117959,707.8369935023964
3803.6448,0.7483826426324612,877.8106750196474
3804.522,0.7465164246131463,655.1617978601654
3805.3972,0.7439876588723685,1447.19447118214
3806.2727,0.741506448297476,717.0812449980299
3807.1504,0.7401698658260042,828.7040949232562
3808.0261,0.7408004823717519,761.736522192913
3808.9043,0.7434838628554292,763.1562030511731
3809.7805,0.747618161470753,658.7551284490236
3810.659,0.7523444632685004,759.6945303738578
3811.5356,0.7568523801512236,753.0291354688218
3812.4126,0.7606724318086074,691.97551500922
3813.2917,0.7636984449854384,614.5928980242362
3814.169,0.7660397444203382,715.1159636098673
3815.0483,0.7677923205557878,768.6909679972322
3815.926,0.7688035879739502,795.8919113341656
3816.806,0.7687906206708318,883.5536514583634
3817.684,0.7675988149234327,656.7592355851401
3818.5623,0.7653729689550275,720.4186003989239
3819.4429,0.7624355308340366,837.9778182224911
3820.3215,0.7590812645109177,818.3205467470252
3821.2024,0.7554442113298495,740.7739932473083
3822.0815,0.751728389021917,876.1052149721894
3822.963,0.748321702657932,962.843021717911
3823.8423,0.745745442917376,804.2369974810991
3824.722,0.7442295452777388,863.0932068402669
3825.604,0.7434892503048532,744.9688053053723
3826.4841,0.7428546080397895,770.7199001576348
3827.3665,0.7416811430045326,721.1758579966989
3828.2468,0.7397218747057058,758.5382731365852
3829.1296,0.7371368790357459,815.9417224927292
3830.0105,0.7343040098513595,1014.5080794541109
3830.8916,0.7315266436495929,745.5043177211525
3831.7751,0.728958954461144,735.6501545195216
3832.6565,0.7266842490906036,777.5494708917224
3833.5403,0.7247574332201582,690.7738612199638
3834.4224,0.7232731331375425,844.9183809380033
3835.3064,0.7223035662893118,835.965908777949
3836.1887,0.7219190001825208,849.1606425747825
3837.0713,0.7221852646095461,904.9174345326294
3837.956,0.7231309711508452,826.8312592248262
3838.839,0.724613675104174,818.364267527149
3839.7244,0.7262758544986331,815.8136154462405
3840.6077,0.7276905494601643,742.6919785326412
3841.4932,0.7287370444584819,779.8494806100462
3842.377,0.7297841854287827,1027.2815408868323
3843.261,0.7314872153394233,894.4144477272719
3844.1472,0.7342471676735263,793.5585628744442
3845.0315,0.7377992423645092,774.425894985699
3845.9182,0.7413885497719818,776.4144614659613
3846.803,0.7442181027328091,820.4100182142258
3847.69,0.7459418374401916,712.1562480763093
3848.5752,0.7466617500557744,645.8732516907376
3849.4604,0.7467161609985903,838.4765734257181
3850.3481,0.7464137499307187,898.2006422981844
3851.234,0.7459593108712426,769.2574971455575
3852.122,0.7454859597363505,771.6112357390723
3853.0083,0.7450920512053941,870.6438725926306
3853.8967,0.7448032062125612,830.2578985146868
3854.7832,0.7445521409681226,733.1624337442908
3855.6702,0.7442003986291168,675.8756641683999
3856.559,0.7435911294194298,828.2783602511545
3857.4463,0.7426040834715746,832.9610009580822
3858.336,0.7412289361953339,804.990925390281
3859.2234,0.7396794737058479,808.9350242998721
3860.1135,0.7383276199320081,789.5401803421461
3861.0015,0.7374901418104555,923.9863304778933
3861.8896,0.7371418205892258,768.9469174177829
3862.7803,0.7369226859617349,956.4071324415189
3863.6687,0.736404105046431,880.6902761301982
3864.5598,0.7353878365622244,895.7591477003635
3865.4487,0.7340235905518699,777.2574786327096
3866.34,0.7326603935515226,836.0821332085352
3867.2297,0.731633181366833,913.2320493794177
3868.1213,0.7310493396513592,912.7052698429937
3869.0112,0.7307765821669008,847.0523544869337
3869.9014,0.7305763891729887,653.0858482993019
3870.7937,0.7303034528437964,825.5828050408883
3871.684,0.7299876852563586,826.6754666010619
3872.577,0.7297235516297038,764.6936277403745
3873.4678,0.7294650654253032,881.9075933259851
3874.361,0.728903916323067,661.335830842025
3875.2524,0.7276155069144324,1007.0450629989848
3876.1438,0.7253740074498934,872.8153474388204
3877.0376,0.7223607569142746,834.0037419933772
3877.9297,0.7190664648807283,791.3439491190007
3878.8237,0.7158517350902761,701.984238977751
3879.716,0.7126906373809957,876.4463433478683
3880.6108,0.7091662710120077,976.7950154668979
3881.5037,0.7049054599792018,784.1812033885237
3882.3965,0.6999074229044532,796.4272477609869
3883.2917,0.6946399399901154,908.7840852246218
3884.185,0.6897992178188517,1037.6533132477475
3885.0808,0.6857978580072589,1101.2836438768427
3885.9746,0.6826260538460178,997.7198878270477
3886.8706,0.6798966598388452,949.118975725052
3887.765,0.6772670845339833,793.2308161931107
3888.6592,0.6747168713118474,777.9952096200021
3889.556,0.6726226365871931,1084.5796419140472
3890.4507,0.6715237827604671,860.50378020047
3891.348,0.671711332083069,1018.2136497425925
3892.243,0.6730335391594955,1042.4825458549403
3893.1406,0.6750419792732953,813.4870879166167
3894.0361,0.6773593741797967,881.1520948329965
3894.932,0.6800090709782428,888.6036631145806
3895.83,0.6833117502454418,866.0006109949771
3896.7263,0.6874334709020221,1021.6793384838419
3897.625,0.6920921971976409,1193.3162065224974
3898.5215,0.6965779682965095,1043.7428398957766
3899.4207,0.7003505356405825,1042.9953008647783
3900.3176,0.7033946230057869,738.7105652633419
3901.2148,0.706246589131743,826.9673070672384
3902.1145,0.7094895317417014,843.2097244953254
3903.0122,0.7133090915056584,788.915106524799
3903.912,0.7175057960638572,795.1381989922052
3904.8103,0.7216523607582987,775.226446518728
3905.7107,0.7253800634659469,769.9190668475106
3906.6094,0.7284343869080271,769.9170547276659
3907.508,0.730820648983958,914.7098112437764
3908.409,0.7328023584919744,727.6028727750344
3909.308,0.7347928010386429,686.2737771619327
3910.2097,0.737201118918321,802.8365298264293
3911.1091,0.7402155314925557,594.8331296569348
3912.011,0.7437569635032842,794.4081315076919
3912.9111,0.7474560430433116,735.1897046956981
3913.8113,0.7509025833466119,797.7377832925198
3914.7136,0.7538644346852283,722.8353082138227
3915.6143,0.7563565192117834,745.9659285920472
3916.517,0.7585544248657459,610.6777938461373
3917.4182,0.760540267111076,701.6435680708923
3918.3215,0.7622359144079262,752.9649607757069
3919.223,0.7634239642086779,777.5594367759534
3920.1245,0.7639129598395455,738.8315299518342
3921.0286,0.7636189738249745,857.6219218100659
3921.9307,0.7625839514632669,741.3156956468061
3922.835,0.7609304619236656,653.1306342557481
3923.7373,0.7588680525782764,718.2401738502282
3924.642,0.7566729852478852,782.3291238816624
3925.5452,0.754677194768359,715.0280352881657
3926.448,0.7531051209186802,850.4041066940124
3927.3535,0.7519782439334401,747.772606767212
3928.257,0.7511567166793445,741.2566442698313
3929.1628,0.7504750134165035,727.024258532572
3930.0667,0.749875659894489,752.3147620845463
3930.9731,0.7493521791011885,791.3460781247641
3931.8774,0.7488153067934399,790.8373849210088
3932.782,0.7480059341169075,709.9724172716135
3933.6887,0.7466056868775228,726.5966569564309
3934.5938,0.7444856067149869,782.1140747639923
3935.501,0.7418389108336986,771.0206890033086
3936.4062,0.7391245391788785,813.2255335635024
