wavl,flux,ivar
3566.9744,0.7438544190894605,735.7913729417951
3567.795,0.7409320684441503,563.9640828591814
3568.6177,0.7383754178786054,875.7499822585758
3569.4385,0.7370220930431751,782.4610686890934
3570.2617,0.7377406279647739,792.7850722871584
3571.083,0.7414242578043151,839.4874844418755
3571.9065,0.7492112923946476,653.1280687775383
3572.7283,0.7623972981956686,703.6600719483057
3573.55,0.7814425903000698,742.3000071748171
3574.374,0.8038525864219509,813.6914178437319
3575.1963,0.822908634718056,618.2276588883287
3576.0208,0.8305641684280587,32.09476858308602
3576.8435,0.8225479577640851,824.8662085319419
3577.6682,0.8020319118937124,1049.7354947094095
3578.4915,0.777746987618288,755.6387695694705
3579.3145,0.7579693486391726,1033.9940449128792
3580.14,0.7461420336554135,1083.7621911574668
3580.9636,0.7408172307449483,728.4102422618429
3581.7893,0.7383559825340801,634.4248405286651
3582.6133,0.7360779679918379,749.5394219653876
3583.4395,0.7334380107307658,758.0989813184489
3584.264,0.7315267946479234,877.0797535814086
3585.0884,0.7316362044294681,817.3042874390899
3585.915,0.7341231845022002,805.6424751770545
3586.74,0.7380234573478348,838.8626150015283
3587.5671,0.741544901594797,538.5918289176172
3588.3923,0.7428293161249906,868.7890648212518
3589.22,0.740734695845709,674.1922608907611
3590.0457,0.7352558390821858,730.7539217087641
3590.8716,0.7275965388758718,869.6750866336906
3591.6995,0.7198865988124394,1024.8466594289307
3592.526,0.7145182676911845,788.7389913538555
3593.3542,0.713009225983929,927.1867877778049
3594.181,0.715241815018906,651.552524979434
3595.0098,0.7194278182425792,570.6134496842255
3595.8367,0.7230579449390767,681.1507265011927
3596.6638,0.7243729521316279,533.1588924779093
3597.4934,0.7232242801035482,728.874403028942
3598.3208,0.7209174034259599,790.5738225796446
3599.1506,0.7191019553187813,1141.602663410072
3599.9788,0.7186750857086288,893.1194742077328
3600.8088,0.7193620620249143,787.3161699652518
3601.6372,0.7201930056436301,914.3232969919642
3602.4678,0.7203051699231637,801.7392055053672
3603.2964,0.7194161198982164,797.2590192983721
3604.1252,0.7177315693424481,848.8483277236538
3604.9565,0.7155422036886688,650.8334036406385
3605.786,0.7130184821214486,734.4230044134393
3606.6172,0.7102646933192585,888.5453293951581
3607.447,0.7075709620835833,824.2281967656855
3608.2788,0.7054432983682318,776.2902662048182
3609.109,0.7045386390887033,710.3255670580737
3609.9392,0.7053764319532407,1039.3764780824795
3610.7717,0.708019420112747,867.8047430853514
3611.6023,0.7118052445892347,723.8263420398459
3612.435,0.7155639396706336,1008.1087738772071
3613.266,0.7180892731076429,1107.399148207654
3614.0994,0.7187228212788039,723.143984889598
3614.9307,0.7175134974863441,788.7196911261719
3615.7625,0.7150855828488061,749.0796688127347
3616.5962,0.7122795138989272,1070.10896640794
3617.4282,0.7098019265269789,769.4573546513581
3618.2625,0.7079594256833348,994.8532163841363
3619.0947,0.7067622796945949,868.9958419249481
3619.9292,0.7061335465651858,816.2510341032726
3620.762,0.7060730021527375,812.0733874880749
3621.595,0.7065508266603668,802.142119721835
3622.4302,0.7073945124527666,784.8581149910511
3623.2634,0.7083410427209306,1019.2438737062356
3624.0989,0.7092211051740871,1179.2581262343915
3624.9326,0.7099975649708749,854.8936678774531
3625.7686,0.7107141697594023,803.9247781572793
3626.6028,0.7114754379074163,617.0624815464581
3627.437,0.7125505112653452,877.902372137348
3628.2734,0.7143407951240313,839.1004812748166
3629.1082,0.7170794171282235,875.6111565760483
3629.945,0.7205831935627591,974.5669469952713
3630.78,0.7242730845196035,915.2571019135672
3631.6174,0.7276191629820324,921.7333686013775
3632.453,0.730375474288831,670.4109630089606
3633.2883,0.7326307684877221,1073.6680845359112
3634.1262,0.7345759192505228,987.875592284606
3634.9622,0.7363357018058398,762.7673068017397
3635.8005,0.7379648539299283,760.6046470033394
3636.637,0.7393926268793214,945.9549758022692
3637.4756,0.7403976101496894,829.3921241105123
3638.3123,0.7405985633498898,814.8713047684214
3639.1492,0.7397129896790894,956.847902608859
3639.9885,0.7378398934676562,910.4341747749726
3640.826,0.735357508824428,682.7893465847927
3641.6653,0.7320713004617279,747.1313997298178
3642.5032,0.7263859662430863,655.3288484062341
3643.343,0.7156271850274217,537.4547804955795
3644.1812,0.6985172698328719,617.768141010562
3645.0195,0.6779256289466489,725.9290540767272
3645.86,0.6612450388175126,674.1632812437932
3646.699,0.6565841583135638,598.175139042723
3647.5398,0.6668957547811049,689.1138609134051
3648.379,0.6877564082673686,688.6803348061129
3649.2202,0.7106549135402537,813.944670713773
3650.0596,0.7280818637534026,779.7368966655444
3650.8994,0.7370873923375146,672.7993538601725
3651.7412,0.7387353896951285,651.6539929314289
3652.5813,0.7361307769111222,966.8229202144252
3653.4236,0.7324148907598151,755.4861581693348
3654.2642,0.7296311408002025,895.1365487923364
3655.1067,0.7284999246137605,988.198043560554
3655.9475,0.7290045281739647,734.1045103308229
3656.7886,0.730987612930411,1161.0517793750919
3657.6318,0.7343298306900645,704.0465480401555
3658.4734,0.7387044842660492,924.8106461269035
3659.317,0.7435550918951342,632.0649885022966
3660.1587,0.7482625198174261,916.508690487951
3661.003,0.7525011513392388,842.3111583420143
3661.845,0.7561678711407247,1085.1479139158932
3662.6875,0.7592456281576767,644.8243378609827
3663.532,0.761520710629123,782.2368456649659
3664.3748,0.7625254303576934,823.3863976428246
3665.2197,0.76176891841813,617.4032608288366
3666.063,0.7591249523184072,576.5038363571501
3666.9084,0.7551625364236337,720.619526542946
3667.752,0.7511594589777445,645.0162607596432
3668.5977,0.7485135770501754,800.1905227030965
3669.4417,0.7480459885772849,751.2126202482332
3670.286,0.7494470128013252,553.0508452460892
3671.132,0.7514493005058456,779.979031232796
3671.9768,0.7525431822400654,629.1846957932424
3672.8235,0.7518659357533671,701.4566771047403
3673.6685,0.7496007695241789,976.8470650373968
3674.5156,0.7467047666122301,885.8679933717111
3675.3608,0.7442799946118996,851.0937790011872
3676.2063,0.742916714479487,863.6678835052845
3677.0542,0.7424855616907144,799.4424479839346
3677.9,0.7423485987062068,706.1221769679154
3678.748,0.7418941924725254,661.4214387875893
3679.5945,0.7410712488335637,641.5148402129947
3680.4429,0.7404818463062194,1001.7818143284438
3681.2896,0.7409317114394389,680.1553308599883
3682.1365,0.7427570905120993,785.091528456122
3682.9856,0.7455082422410979,900.637638828581
3683.8328,0.7481382447968452,509.2525207924754
3684.6824,0.7496044535383177,642.2619951607765
3685.53,0.7493642686834907,957.7218583338572
3686.38,0.7476474066118984,662.1452296574616
3687.2278,0.7453000367605934,716.6715464113175
3688.0762,0.7433087600845789,761.4508723444557
3688.9265,0.742364328542852,773.0186604027004
3689.7751,0.742648795048524,760.828576019285
3690.626,0.743855377116545,624.3005105841897
3691.475,0.7453159269193314,801.8101253033486
3692.3264,0.7461913951441081,894.1794486610092
3693.1758,0.7457108105081183,634.9161184524485
3694.0254,0.743497886481312,720.6700824984209
3694.8772,0.7397876652721658,705.9397989829405
3695.7273,0.7354891142516735,884.4493056259645
3696.5793,0.7318161211575605,912.2260689282999
3697.43,0.7297594964817834,897.7271943662665
3698.2825,0.729475149269872,703.3241368177833
3699.1333,0.7302042834270127,769.7257158924172
3699.9841,0.7307436358460442,650.9518678801081
3700.8374,0.7302340217388879,776.7964521021007
3701.6887,0.7287534857464617,919.6144351392561
3702.5425,0.727298814986311,928.1723789962605
3703.3943,0.727170162028272,996.1521287019825
3704.2483,0.7291069836215929,773.9547221900889
3705.1003,0.7328220982135715,1085.2495781149191
3705.9526,0.7372447533886072,658.5469483526043
3706.8074,0.7411545388862923,668.4193632609508
3707.66,0.7436835617509175,570.2711941433807
3708.515,0.7445439224607943,623.2087442058839
3709.3682,0.7438674693215558,668.3262793107549
3710.2234,0.7420501048160456,791.8316341510387
3711.0771,0.7395481992294228,764.8458156631572
3711.9307,0.7366371561668802,974.8002797501017
3712.7866,0.7333347700846603,700.058048131922
3713.6409,0.729655732231935,869.2810199799192
3714.4973,0.7259233627616472,802.6843792510894
3715.3518,0.7229495599714498,1030.4261647698413
3716.2085,0.7215625261169205,907.0649145699196
3717.0635,0.7219652648832147,576.4113003462206
3717.9185,0.7233693257107308,990.6898294114058
3718.776,0.7244737295767166,705.112744002372
3719.6313,0.7244333290000137,915.0746744075009
3720.489,0.7235600512038688,644.5787450372658
3721.345,0.7230767660221648,946.0895618569614
3722.2031,0.7241397964426273,799.250556136351
3723.0593,0.7269631528002387,707.2477404962642
3723.9158,0.7307282434790042,799.434324091379
3724.7747,0.7342077305572526,682.661189862861
3725.6316,0.7364966975380234,693.5247575091313
3726.4905,0.7374237665161759,862.2397324237078
3727.348,0.7373207439853992,857.34422554171
3728.2073,0.7366146426681514,886.8730027381367
3729.065,0.7355418237967468,987.4352076599322
3729.9229,0.7341339018915823,709.9235891259768
3730.783,0.7323541553464432,855.1035532699989
3731.6414,0.7302371566867903,845.3710857464911
3732.5017,0.7279544742007716,605.698694947386
3733.3604,0.7259050550032331,800.4185078970731
3734.2214,0.7245741766496087,748.3769779501655
3735.0803,0.7242529402288489,706.219616209078
3735.9417,0.7247257514348909,779.719315646454
3736.8013,0.7253259726859308,667.8604488074068
3737.661,0.7253181776382278,837.1558888906732
3738.5227,0.7242927176606786,869.105026700481
3739.3828,0.7223291556616132,761.932078970201
3740.245,0.7198314729121963,958.3941111678851
3741.1055,0.7172598839226886,715.1658772848625
3741.9683,0.7148709854483803,706.8485150633577
3742.829,0.7128190132167058,881.3146576018688
3743.69,0.7113376965121713,756.0977314817864
3744.5532,0.7108285084564829,710.6414592241761
3745.4148,0.7115883473487621,757.6076315212034
3746.2786,0.7134348630747539,915.8988831433448
3747.1404,0.7156424649836268,703.8970579047925
3748.0044,0.7173853784859145,809.6463511792953
3748.8667,0.7182644951016991,755.9216856260847
3749.729,0.7185290029048171,980.5670352280891
3750.5938,0.7186854597346997,1019.7675831524596
3751.4565,0.7189225692800424,865.0976277787473
3752.3215,0.7188865015365481,917.1564154027702
3753.1848,0.7179840260474337,811.3515526369349
3754.0503,0.7158930682901874,752.306948679899
3754.9138,0.712895997123388,621.8139175606854
3755.7776,0.7097881047163452,1213.0560024434244
3756.6438,0.7075516511276577,1204.1137799387268
3757.508,0.7069539372806647,1074.947816016953
3758.3745,0.7082272508874533,809.5012753338696
3759.239,0.7110447279495694,835.1788782321424
3760.106,0.7147347035981629,947.9080959810727
3760.971,0.7184951382445579,968.1085636190874
3761.8362,0.7216261277981436,844.6177085358651
3762.7036,0.7235464400411569,812.0878994590001
3763.5693,0.7238439437656973,673.0741505549317
3764.437,0.7224703417228002,701.9094053633906
3765.3032,0.719899576785715,748.4364842994814
3766.1714,0.7169862270904,850.6685717261536
3767.0378,0.7145277222193019,931.6211434241629
3767.9043,0.7127599435083167,775.3687344256176
3768.7732,0.7113430969605822,717.9450115982075
3769.6401,0.709771976112745,794.6180610675891
3770.5095,0.7077904046306103,759.608813579182
3771.377,0.7055594269742101,910.6730792547576
3772.2466,0.703474275285697,772.6283849757602
3773.1145,0.7019918984862153,730.5745065765294
3773.9824,0.7013968203579027,954.5164321536068
3774.8528,0.7016363753521752,777.7278950885161
3775.721,0.7022946808584515,815.5230576750552
3776.5918,0.7029046721344011,536.4338205371158
3777.4604,0.7033573107645475,803.1262310717414
3778.3315,0.703993553622393,842.4150470651977
3779.201,0.705185157827904,979.7052025362004
3780.0703,0.706835652098703,829.8282499511291
3780.942,0.7082902904209482,826.7267550203879
3781.8118,0.7087984926506132,668.3435726456122
3782.6838,0.7081925342815243,862.8105767409086
3783.554,0.707108071604081,770.0946574423092
3784.4265,0.7064869030916155,806.1123931988794
3785.297,0.7067822733415292,853.0813308849242
3786.168,0.7075587971949946,748.523387188203
3787.041,0.7078465432757967,773.0576561998964
3787.912,0.7068566392727704,683.0645946341479
3788.7856,0.7045029987785935,852.1948273850273
3789.6572,0.7014566906238261,748.3224649403559
3790.531,0.6986884357488237,899.7381373404684
3791.403,0.696903312196356,890.7621131969532
3792.2754,0.696090032982987,833.294400226692
3793.15,0.6956510007112546,831.1189433723221
3794.0225,0.6948946281308873,908.7513783085979
3794.8972,0.6934572913294228,846.0134746372038
3795.7703,0.6913836748528799,718.7321882356049
3796.6455,0.6889360944228307,712.5905551422386
3797.519,0.6865215145493067,790.4790530056376
3798.3926,0.6846534352194272,1010.3451408549887
3799.2686,0.6838986120689325,795.4464764211393
3800.1426,0.6846383978670659,834.0016818639965
3801.0188,0.6868112466478365,927.2418500256331
3801.8933,0.6898974898976499,836.5762228020972
3802.77,0.6932329718209695,742.6218859627277
3803.6448,0.6962488345676711,672.7918140767157
3804.522,0.698575543930627,1053.8900493234187
3805.3972,0.6999009153715324,814.4348391316888
3806.2727,0.7000868472039978,843.4163747734806
3807.1504,0.6993824621703467,1171.6155329270634
3808.0261,0.698523062763353,828.0399355392492
3808.9043,0.6984345891766928,753.9913342877519
3809.7805,0.699780420951697,851.364280652342
3810.659,0.7026529742859563,727.7811259430956
3811.5356,0.7064920737896665,693.5469706307898
3812.4126,0.71028409511025,718.2051441481063
3813.2917,0.712940432419813,661.8450068206846
3814.169,0.7138302766318261,790.7975882558833
3815.0483,0.7131398156157015,686.6098505614547
3815.926,0.7116060722864667,1102.1304717481887
3816.806,0.709884852558284,733.0228563415805
3817.684,0.7081572256812776,789.353490995676
3818.5623,0.7062388863893535,856.5739776752314
3819.4429,0.7040187986768364,932.2107601792295
3820.3215,0.7017349244987675,649.1559469126696
3821.2024,0.6998075045114782,863.6734519728834
3822.0815,0.6985243215701613,730.3745224492949
3822.963,0.6977352446158205,842.0864265470329
3823.8423,0.6968933633177485,769.1550544536061
3824.722,0.695335908911071,717.9795353639716
3825.604,0.6926634733840201,877.8525254616162
3826.4841,0.6890117728015528,1001.2329729406756
3827.3665,0.68498271031712,950.2950179892613
3828.2468,0.6814058569157454,870.0188856601659
3829.1296,0.6787935325549599,934.8954811551647
3830.0105,0.6770222193228576,1006.4738439413828
3830.8916,0.6753141105181426,729.3900615781309
3831.7751,0.6727726297451427,955.0008644740524
3832.6565,0.6690563079174222,804.420366412485
3833.5403,0.6646221778407211,868.2785375869277
3834.4224,0.6605338014547043,1067.3508329135332
3835.3064,0.6578013679562768,1245.0572709893984
3836.1887,0.6569229777442364,1477.3853381486008
3837.0713,0.6576706415289588,948.7563682356085
3837.956,0.6593680363717326,786.0850946717559
3838.839,0.6613509249997959,861.2697560842631
3839.7244,0.6633740822580163,825.5477929644652
3840.6077,0.6655888844767364,804.5132353694444
3841.4932,0.668293819767818,1018.304556764964
3842.377,0.6715944485362602,817.5771789352993
3843.261,0.6753502949342725,982.733525820533
3844.1472,0.679265079854456,822.6200845058589
3845.0315,0.6830284648302652,868.2341362609576
3845.9182,0.6865130206567246,821.8746386282974
3846.803,0.6897566371323954,949.9424544398431
3847.69,0.6929753126474458,816.6085188490808
3848.5752,0.6963185170089675,1122.983869895062
3849.4604,0.6997450214568101,742.7445368937322
3850.3481,0.7030649907285711,850.8487001662328
3851.234,0.7061994822052707,863.2250665947299
3852.122,0.7094177679742792,859.7574878579609
3853.0083,0.7130604140968828,666.7103531863122
3853.8967,0.7171604787444744,762.9035672456947
3854.7832,0.7211509597621082,742.2931592323259
3855.6702,0.7241984557179514,680.8845990771679
3856.559,0.7257207286264198,795.5920224886983
3857.4463,0.7257664840089745,778.0376931837263
3858.336,0.7249180771313815,690.6859885391455
3859.2234,0.7238519988514394,738.5140783560105
3860.1135,0.7229759867952871,720.1031104339484
3861.0015,0.722403862517823,764.9956533923369
3861.8896,0.7220933828614323,808.8275716955588
3862.7803,0.7219740474277753,829.4578645955178
3863.6687,0.7219296596386524,763.2969237713015
3864.5598,0.7217566292203696,727.6707733840939
3865.4487,0.7212355110208521,715.7156934696362
3866.34,0.7202405881010938,778.9532873864882
3867.2297,0.7187324793932048,746.9690756805248
3868.1213,0.7165944964414049,927.0860429817895
3869.0112,0.7136384749843231,727.1341314597869
3869.9014,0.709813057667986,681.5072965679138
3870.7937,0.7054576946073067,784.484847240753
3871.684,0.7012597512419154,861.8591270587308
3872.577,0.6977860929605422,1165.9857945283063
3873.4678,0.6951802038228634,983.9265989099116
3874.361,0.6930182239793323,869.0067087284067
3875.2524,0.6905920311170494,797.7344994362169
3876.1438,0.6872200184139763,1003.7813895688032
3877.0376,0.6825363810696555,823.1410264680218
3877.9297,0.6766446770217615,914.9951624274694
3878.8237,0.6699491597463875,1081.0498573893838
3879.716,0.663004288736676,948.1414379857803
3880.6108,0.6561241375115358,1063.1205861596338
3881.5037,0.6493472665824175,954.9107358682992
3882.3965,0.6424063283917116,929.6562390874215
3883.2917,0.6350665592021936,1096.7017335579012
3884.185,0.6274756530106982,872.1124901871812
3885.0808,0.6200630349506295,1201.7416400771237
3885.9746,0.6134114978269607,972.549132246306
3886.8706,0.6077971130529234,1099.49340173234
3887.765,0.6032297719381914,1070.0615466727784
3888.6592,0.5995598457989321,1247.3648880667881
3889.556,0.5967975507033236,1223.192385015435
3890.4507,0.5952800627111262,1042.5462797614457
3891.348,0.5955572298286822,1225.5670422767184
3892.243,0.5980913464366748,1483.9269839777376
3893.1406,0.602839894276365,973.7916003406558
3894.0361,0.6090230566553986,1214.3123418441842
3894.932,0.6155560636784617,991.1803212017626
3895.83,0.621711753452517,1133.2141564719575
3896.7263,0.6275343865996139,1274.4578377113057
3897.625,0.633767372424745,933.1281092243556
3898.5215,0.641048952538455,1041.5502824352498
3899.4207,0.6494130321747686,908.5360166623741
3900.3176,0.6580450626561338,938.277102538201
3901.2148,0.6659708609109717,856.6333316549201
3902.1145,0.6726987562157997,772.0656285940356
3903.0122,0.67848672022586,894.1072076070662
3903.912,0.684136880500746,890.024704303151
3904.8103,0.6902771475998976,997.4826091489457
3905.7107,0.6970791186879145,953.2026813775524
3906.6094,0.7041775567497915,827.249921419793
3907.508,0.7110786664666187,910.019003404104
3908.409,0.717472480105288,867.9251156403061
3909.308,0.7233852437168563,826.8726603624725
3910.2097,0.729203840566824,676.74604531443
3911.1091,0.7352503534628445,791.2762110135224
3912.011,0.7415744219521901,702.1129145426219
3912.9111,0.7477420167341926,728.5577030043091
3913.8113,0.7531506235513936,584.7995426094865
3914.7136,0.7573243680719808,763.3373780320505
3915.6143,0.760113153147691,829.9018136753085
3916.517,0.7617747652423406,591.879078633303
3917.4182,0.7628052712895985,785.6446950773314
3918.3215,0.763754374341171,720.4010570317462
3919.223,0.7649228387551774,731.9322163110525
3920.1245,0.7662113485165012,753.7881791397391
3921.0286,0.7672596534817795,603.2708219769811
3921.9307,0.7678273461365454,751.8102281779198
3922.835,0.7680867566418709,721.9047253811829
3923.7373,0.7685073465089138,694.642175858281
3924.642,0.7694989205374931,714.5168305696999
3925.5452,0.7711104196533176,641.405887941296
3926.448,0.7730289051807026,657.9651377832432
3927.3535,0.7747602308904395,630.366143404051
3928.257,0.7757989304158718,712.9946931014806
3929.1628,0.7757833088393187,690.9303403578598
3930.0667,0.7745878123643214,652.3756567839109
3930.9731,0.7724072742968722,737.8944957829596
3931.8774,0.7697284205954408,801.2322568965851
3932.782,0.7670500202463532,732.46468872913
3933.6887,0.7646363665120379,752.3049224849934
3934.5938,0.7624989589462403,650.2383703048813
3935.501,0.7605796722151761,614.0435653685316
3936.4062,0.7589985593336388,727.5553460653167
