wavl,flux,ivar
3566.9744,1.75748229285109,376.87216579352145
3567.795,1.7499755649135882,319.1741830312212
3568.6177,1.7409211181493534,318.5758006472762
3569.4385,1.7297297673067116,271.7853155291476
3570.2617,1.7149331656883957,317.8280044997646
3571.083,1.6961946866631623,302.98814590503014
3571.9065,1.6760338627177278,293.01166596125233
3572.7283,1.660149313584302,343.3392721106458
3573.55,1.6539957823140377,376.9035832974582
3574.374,1.6590880563886201,315.1496034218671
3575.1963,1.6717931772377972,276.44343052969293
3576.0208,1.686196933778935,300.0957851871391
3576.8435,1.6977608644733149,350.2398153817562
3577.6682,1.7052023289313056,320.6434482263407
3578.4915,1.7093661327142513,396.09827230125745
3579.3145,1.7116769127474445,279.1440565034526
3580.14,1.7131659133021737,294.9067190457243
3580.9636,1.7143422794195344,384.0169727298644
3581.7893,1.7152648591778148,308.8167919570613
3582.6133,1.7155203492344537,351.04215496405953
3583.4395,1.7143931573867937,371.95722427286324
3584.264,1.7113007375097045,300.41651138268026
3585.0884,1.706297144324358,338.5143247863647
3585.915,1.7003071941687098,333.215555271751
3586.74,1.6949116720389912,341.41319575933665
3587.5671,1.691508903790656,382.7702273648187
3588.3923,1.6906398263457483,331.0786791509869
3589.22,1.6917028990498584,335.5527449594921
3590.0457,1.6934360974356575,328.81226052169137
3590.8716,1.694660246098202,319.0839985298979
3591.6995,1.694722096829953,377.715801020328
3592.526,1.6934930549541478,297.5046324146957
3593.3542,1.6911331695512988,344.9168220047192
3594.181,1.6878957202469518,311.1382415625512
3595.0098,1.6839410213423471,271.34330526988026
3595.8367,1.6793399771606863,281.0590444112213
3596.6638,1.6741108684652863,327.4353021117442
3597.4934,1.6684465355281353,368.5540565604023
3598.3208,1.662821759162207,382.94609732110627
3599.1506,1.6576414774002806,524.479207587578
3599.9788,1.6530688049474687,368.7685112916273
3600.8088,1.6489840250848653,404.2355293126061
3601.6372,1.6454950151897763,410.7575826058218
3602.4678,1.6431946771076753,315.21664582315253
3603.2964,1.6430307750077975,316.91733993705947
3604.1252,1.6456014005855506,375.6574272704861
3604.9565,1.650532777170136,424.56579730798666
3605.786,1.6562912743135618,346.3535662159698
3606.6172,1.6609394550440466,384.47264718434104
3607.447,1.663095307906564,305.77968162240427
3608.2788,1.6626340762552523,431.9024446605204
3609.109,1.660418314670805,374.84005797819503
3609.9392,1.6575162400556254,333.5524610318764
3610.7717,1.6545724340373416,288.9140512672061
3611.6023,1.6517681378215785,367.8026279462247
3612.435,1.6490841989522662,319.9834156935507
3613.266,1.6465984610143714,359.87606691979727
3614.0994,1.6443514683780622,325.92686201942877
3614.9307,1.642180032991904,366.3703122476322
3615.7625,1.639727401901104,326.1471990167147
3616.5962,1.6368331476466247,351.2669970293974
3617.4282,1.6338069823281176,338.71671906906283
3618.2625,1.631112934730827,391.2926689660441
3619.0947,1.6288413323830289,330.73047836703626
3619.9292,1.626454121046212,315.7408912959221
3620.762,1.6233146197564368,340.2097677077007
3621.595,1.6193230704207402,382.0929514483278
3622.4302,1.6151375589744734,345.3973896770719
3623.2634,1.6118881091609893,381.65325543224816
3624.0989,1.6106579755174912,399.24613841729564
3624.9326,1.6121752897650155,397.8106061461284
3625.7686,1.6164492248275382,399.2850828292898
3626.6028,1.62247528206909,370.29592266822806
3627.437,1.6283724135513606,357.3378326371805
3628.2734,1.631890720416836,323.3070666098884
3629.1082,1.6311865485506758,425.5326955199019
3629.945,1.6256678011810939,342.2419455487833
3630.78,1.616468736070171,359.9400453330599
3631.6174,1.605955697595196,381.29979784771064
3632.453,1.5966101599752756,460.7444260140131
3633.2883,1.589531456046692,358.50152092376084
3634.1262,1.5843173309514418,398.5818679238664
3634.9622,1.5800640543428714,446.48887811634347
3635.8005,1.5762906120442801,475.46862863519755
3636.637,1.5730712966338722,370.6288331519486
3637.4756,1.5702568182815824,367.6617300540432
3638.3123,1.5671194272963958,326.37789614681583
3639.1492,1.5626738889209042,391.52638948494916
3639.9885,1.5564836775260722,351.2225314240138
3640.826,1.5492936181431771,416.8765688591362
3641.6653,1.5428367389231594,378.6889770631302
3642.5032,1.53915048235884,437.6367491031281
3643.343,1.539309221965162,356.04971983317705
3644.1812,1.5426649892302888,436.65279592302414
3645.0195,1.5470815914283724,423.53806146262497
3645.86,1.5501830785464745,433.50237750925965
3646.699,1.550711601480309,436.3920488919475
3647.5398,1.5491739848640507,349.61560102382
3648.379,1.5473375562243157,430.2071897425449
3649.2202,1.5470183190045332,405.47358277798344
3650.0596,1.5489205763928726,423.7560958797526
3650.8994,1.552172774497117,388.5954734283226
3651.7412,1.5548825856465107,362.83978056725243
3652.5813,1.5553197832451626,385.6003398969255
3653.4236,1.5530096357522527,366.064313592149
3654.2642,1.5488929922855244,416.2190023612421
3655.1067,1.544445400829145,489.4309572986718
3655.9475,1.5406031973364727,428.7315543075432
3656.7886,1.5372707654155469,392.4501807355203
3657.6318,1.5339047996723683,380.65746990938084
3658.4734,1.5303665670927284,416.2218270627737
3659.317,1.5271003897103719,445.4055118150947
3660.1587,1.5247239916435509,466.24566578393876
3661.003,1.5234991185948183,364.9310016072966
3661.845,1.523402064262167,345.53733137307546
3662.6875,1.5243665636535761,360.7251743516429
3663.532,1.5263238353835966,475.26994046621536
3664.3748,1.5289918089487124,527.3015845701146
3665.2197,1.5318855959776898,441.4252000811172
3666.063,1.534467220089087,418.3226414823438
3666.9084,1.5363562925619014,414.88823369331544
3667.752,1.5373205325254735,416.32614992342894
3668.5977,1.5373254677978332,441.4042071767015
3669.4417,1.536526298899558,394.6495099872702
3670.286,1.5351518482419684,452.9917644535505
3671.132,1.5332656000747018,388.4927929178696
3671.9768,1.5307244801881117,373.8598608445824
3672.8235,1.5274427505872012,448.78294881530024
3673.6685,1.5237692003616443,393.65833819011146
3674.5156,1.5203199215692178,455.4358363785626
3675.3608,1.5175296465784356,440.57934446078235
3676.2063,1.5152949106725107,406.8764477967923
3677.0542,1.513285241289326,430.9726871722146
3677.9,1.511447695520035,439.63059632230113
3678.748,1.510093470558688,406.12292556017877
3679.5945,1.5096018734369294,418.2463558457349
3680.4429,1.5100102013049923,370.11174101488933
3681.2896,1.5109319906667813,376.6126876176611
3682.1365,1.5117922136923805,407.77576834584397
3682.9856,1.5122058956230682,455.5419794818527
3683.8328,1.5122505246566667,390.65895802956516
3684.6824,1.512383126090976,365.8428142076388
3685.53,1.5129349207075538,429.7675546502926
3686.38,1.5135494469429454,401.74064021548264
3687.2278,1.5130983304565928,427.5283580225913
3688.0762,1.5103339216673202,444.4810438768874
3688.9265,1.5047851109359274,424.6213693489167
3689.7751,1.497238957496774,564.4991030661948
3690.626,1.4892637191436855,424.9307277719701
3691.475,1.4825183200533794,423.94908715782844
3692.3264,1.4779426151558654,430.17017905821376
3693.1758,1.4756065041328197,510.9234558506403
3694.0254,1.4748378443141668,406.28029043938557
3694.8772,1.4749048748380107,505.03748754240854
3695.7273,1.475661185283497,417.09572053310603
3696.5793,1.4776318336605978,404.7880527909273
3697.43,1.481292146396651,436.7020089939439
3698.2825,1.4862039886814704,442.2073821544128
3699.1333,1.49073109495333,409.62399794896265
3699.9841,1.492852213179527,432.86031485195906
3700.8374,1.4913069316282956,393.07765115814874
3701.6887,1.4864290053465627,391.61481866465635
3702.5425,1.4799593697848477,424.81326892532974
3703.3943,1.4741393106463236,534.6178247173289
3704.2483,1.4703976760148518,481.31833550442866
3705.1003,1.4687480471220515,429.5237935944561
3705.9526,1.4679220838668747,407.8567793133184
3706.8074,1.4663746380586413,420.93725772390803
3707.66,1.4633947515868373,461.30175324087134
3708.515,1.459553468176175,465.9146601410953
3709.3682,1.4562970219106728,468.0806747867598
3710.2234,1.4548393509057793,447.0541334418964
3711.0771,1.455292028748222,434.16529641590273
3711.9307,1.4564071738740207,398.46004442610933
3712.7866,1.456206591580059,439.75149980989084
3713.6409,1.4531118413914406,445.30451540691087
3714.4973,1.446861053997003,448.3467073812777
3715.3518,1.4386070556930821,455.56496187730926
3716.2085,1.429941309957841,378.5847104168003
3717.0635,1.4220194063933738,425.69218936272176
3717.9185,1.4150787069340718,498.7680778265745
3718.776,1.408961118200306,413.1733714709927
3719.6313,1.4038331010466558,453.7671001103197
3720.489,1.4002534110185978,545.1688266111825
3721.345,1.3988180160171753,500.03632981832277
3722.2031,1.399564388052183,492.0402509048662
3723.0593,1.4019210627525556,558.6816002234349
3723.9158,1.405064779361106,383.43477699696905
3724.7747,1.4082714459988388,470.1066211619732
3725.6316,1.4109652304714815,457.6874127391462
3726.4905,1.4127279419717387,471.90493804814264
3727.348,1.413317208727737,487.23899016187687
3728.2073,1.4128503545506919,435.1616017068948
3729.065,1.4118019370930033,471.89266854654755
3729.9229,1.4107207936563866,434.0358550239273
3730.783,1.409831772651884,588.8120311968471
3731.6414,1.4088760789832642,463.0629878313493
3732.5017,1.4073666406641185,478.51461120260365
3733.3604,1.4051344534918422,574.8431003010746
3734.2214,1.4026262027603014,439.80339267213986
3735.0803,1.4007474346327053,470.251694303524
3735.9417,1.4001932136060045,451.03407169615383
3736.8013,1.4008838507025927,479.71653374497305
3737.661,1.4018564614774247,419.4873096880983
3738.5227,1.4017840624009905,446.8399319250303
3739.3828,1.3996757141513254,498.45715195235545
3740.245,1.3952521177868848,629.2169389494682
3741.1055,1.3889575690745672,455.9853596222389
3741.9683,1.3816531719993512,455.8851468083532
3742.829,1.3744211280172436,530.6692957698313
3743.69,1.367986875595774,524.8305934394629
3744.5532,1.3623739376769521,519.1321191194347
3745.4148,1.3570395391482366,395.03129459450236
3746.2786,1.351496666969734,496.3867051074502
3747.1404,1.3462082681898218,508.5956725600724
3748.0044,1.3425485655239877,500.3574897011355
3748.8667,1.3419920724526886,869.8769966374402
3749.729,1.34486333517984,543.3366302085602
3750.5938,1.3499469690466006,479.2763041501689
3751.4565,1.3550997208507327,474.14564062768363
3752.3215,1.3585474394790438,553.5648699664457
3753.1848,1.3595839013020108,524.3597242550258
3754.0503,1.358586512877116,517.2598575443235
3754.9138,1.3564651234064022,504.7942520492401
3755.7776,1.354142747395082,554.7357124008882
3756.6438,1.3522875081246968,462.8588722338709
3757.508,1.3512568248492303,546.1197531448137
3758.3745,1.3510960523341506,504.4934355526673
3759.239,1.351622870293121,557.9972642558903
3760.106,1.3524936251533313,577.4367345453176
3760.971,1.353264507827507,522.9195577037846
3761.8362,1.353475309980929,559.6907378062704
3762.7036,1.352728604181011,538.2345636539638
3763.5693,1.3508494869199552,554.0617359097856
3764.437,1.348057705578259,491.8045425393678
3765.3032,1.345056736955287,528.5264573503295
3766.1714,1.3427257152699081,547.8850426856752
3767.0378,1.3416235845951945,548.6351173645033
3767.9043,1.3415750403279645,606.5681685375976
3768.7732,1.3418268462410547,508.0123977919647
3769.6401,1.3415388256615952,528.8541365584312
3770.5095,1.3401744917077543,541.1372323513594
3771.377,1.3375553052465161,566.39699491348
3772.2466,1.3337501641835854,506.01790884949617
3773.1145,1.329169973810949,569.4879451660203
3773.9824,1.3245487734645136,512.663217361922
3774.8528,1.3206809701493138,603.8148752381702
3775.721,1.317960333380917,467.6006764587297
3776.5918,1.3161296200145867,487.3907926565157
3777.4604,1.3147726947244056,560.8335609073382
3778.3315,1.3139239158414995,477.15885102903025
3779.201,1.3142777320424068,522.2330927312391
3780.0703,1.3166402917356523,619.9597174634562
3780.942,1.3212059125403648,564.3327030792774
3781.8118,1.327197972459984,497.83562027561464
3782.6838,1.3332481102105267,497.777363324885
3783.554,1.3378670375221053,547.2743907631431
3784.4265,1.3400021662381123,465.3629610746325
3785.297,1.339223205210038,519.208570318526
3786.168,1.3358575232893874,463.9453439024883
3787.041,1.3308129246967655,555.0810322163625
3787.912,1.3252562086549728,504.69709527401346
3788.7856,1.3200121186464773,546.6902636744867
3789.6572,1.3153013603039345,566.2156969005011
3790.531,1.3107402937259072,520.2605441134558
3791.403,1.3060194383190378,569.9541736094543
3792.2754,1.3013836177431486,546.8831951409479
3793.15,1.2975663160877904,596.429974677285
3794.0225,1.29510002638454,558.1026091818918
3794.8972,1.2937015682300466,515.8937178873
3795.7703,1.2925209836606992,549.0031956148812
3796.6455,1.2907850424096046,593.040138117575
3797.519,1.288248727798992,574.2140198216465
3798.3926,1.285071832769925,540.759981142106
3799.2686,1.2815622729351608,544.9849880625525
3800.1426,1.2781380520420538,515.772053125156
3801.0188,1.2752706659927309,573.3528105583479
3801.8933,1.2733847117175308,550.5214091492
3802.77,1.2725572902097997,598.3404791770109
3803.6448,1.2724902377487854,689.2026024285052
3804.522,1.2726988288816974,569.338857699234
3805.3972,1.2727777913703273,554.8480077433261
3806.2727,1.2725335229441181,672.2028529314925
3807.1504,1.2720241977987607,542.7014443454519
3808.0261,1.2716382632887757,552.4449067671864
3808.9043,1.2721268937352501,579.5625926488368
3809.7805,1.2743755409864566,607.8269578598477
3810.659,1.2788416352662624,591.5521233039487
3811.5356,1.2849187041953374,534.4361614527193
3812.4126,1.2909747694708895,550.5492966826234
3813.2917,1.295085979224938,556.5949839262701
3814.169,1.2960903892788171,604.5410435881508
3815.0483,1.294233388959457,611.3983020396521
3815.926,1.2908409029176662,605.0633737101838
3816.806,1.2873769542306237,616.3045811243626
3817.684,1.2846102329304936,619.8575232527713
3818.5623,1.2822884858334913,564.2049677745911
3819.4429,1.2796017205550723,566.4955717532459
3820.3215,1.2759634867135978,548.1029243209236
3821.2024,1.271407415278816,605.6518061493216
3822.0815,1.2664690321068786,654.8501084430305
3822.963,1.2616027471692797,613.3608828757447
3823.8423,1.2569964073127495,622.9109324770282
3824.722,1.2526032841189303,600.0682013293513
3825.604,1.2483580487864971,630.3026489494857
3826.4841,1.2442104552293356,591.3102548045446
3827.3665,1.2399823963596703,664.3359751951217
3828.2468,1.235485493469028,662.1664742653564
3829.1296,1.2305756467743232,553.08436832945
3830.0105,1.2253361900114843,669.0493710736174
3830.8916,1.2199311658689536,661.311415231162
3831.7751,1.214462059872082,740.7901771603657
3832.6565,1.208897105455072,585.7569129410668
3833.5403,1.2030604963604477,714.1823495289874
3834.4224,1.1969844612155147,630.2781775641317
3835.3064,1.190984029538765,603.3395026498681
3836.1887,1.1857538704726167,737.92411589767
3837.0713,1.1821156701433224,613.2718077569676
3837.956,1.1808291345514066,756.9024386281604
3838.839,1.1823147062890647,594.5048653691143
3839.7244,1.1864246912130156,661.2636684817405
3840.6077,1.1924043024791697,647.6146961686038
3841.4932,1.1992594209049348,728.549535074138
3842.377,1.2060976606194893,696.2465712103127
3843.261,1.2124927069840292,574.1791516182526
3844.1472,1.218359979033473,697.92584957965
3845.0315,1.2236631333834225,584.5385995240155
3845.9182,1.2283642309447211,562.9870906808123
3846.803,1.2324069164892613,589.5895517763913
3847.69,1.2359751039722464,585.5510353915946
3848.5752,1.2394635429610306,598.39506978274
3849.4604,1.2434142853093206,611.6261966943367
3850.3481,1.2482517239148205,512.1684396570163
3851.234,1.2539278868839172,631.8684847508902
3852.122,1.2598342150790323,610.465402049298
3853.0083,1.264907408120458,554.8039677217248
3853.8967,1.2683094336583203,573.9531551003446
3854.7832,1.2698500655609761,593.1668493839511
3855.6702,1.2700719038496173,561.9847558816717
3856.559,1.2697746344972034,524.0965044349249
3857.4463,1.2695331058711012,562.6027632050074
3858.336,1.2694946014451371,610.701769128235
3859.2234,1.2695077068509302,590.4977395141223
3860.1135,1.2693398122210673,568.0884890793292
3861.0015,1.2687787715244585,621.5668267067042
3861.8896,1.2676081582898349,597.4659306154913
3862.7803,1.2656006638058592,546.6399854858566
3863.6687,1.2626160337221033,580.8979797861803
3864.5598,1.2585965650466442,655.0373057895048
3865.4487,1.253557299940407,564.309301239466
3866.34,1.2474232796971243,559.180772403074
3867.2297,1.2402002246373995,590.4574199794486
3868.1213,1.2320256197738897,554.7964303815143
3869.0112,1.2233624996121033,560.1717060082213
3869.9014,1.2147849848073997,643.8374784051308
3870.7937,1.2068372713052038,556.8710561792574
3871.684,1.1999165978289636,570.7080021588828
3872.577,1.1940444987318612,584.3808777231517
3873.4678,1.1889637263806283,695.0903277047508
3874.361,1.1840838526901858,652.6419971487246
3875.2524,1.1787921152978738,717.3335949506378
3876.1438,1.1726352618337066,593.0611520392398
3877.0376,1.1654827439893363,545.5266763457687
3877.9297,1.1575096021709164,694.3722965826606
3878.8237,1.1488775804784255,837.9198913105384
3879.716,1.139720692147433,695.2351140807693
3880.6108,1.1299954574254345,670.2710702611233
3881.5037,1.1197546985945097,673.8847755103521
3882.3965,1.1090807525709336,764.0032011992821
3883.2917,1.0981069683206448,724.2253524146691
3884.185,1.0869762049877476,717.3279730180395
3885.0808,1.0756015156532122,826.0935206106708
3885.9746,1.0640718615478717,713.4376230434002
3886.8706,1.052757118230215,692.0908805106156
3887.765,1.042691183052998,873.2059006517776
3888.6592,1.0351891698540396,934.672953068561
3889.556,1.0314016448990733,965.4984287250641
3890.4507,1.0317873649328535,1006.5315373820955
3891.348,1.0359058285749796,793.5361967613295
3892.243,1.042742891322913,825.5803725679532
3893.1406,1.0513084660344478,866.389573798974
3894.0361,1.060794612202948,930.0890024111841
3894.932,1.070706474248582,718.9499503424139
3895.83,1.080686237749836,736.9744455278638
3896.7263,1.090404751239291,788.799557736291
3897.625,1.09975920397681,747.2440830158758
3898.5215,1.108761738644258,749.4681727251432
3899.4207,1.1178650356796327,725.5504450715382
3900.3176,1.127758963405706,703.9007594193585
3901.2148,1.1391728968841044,753.7467224216753
3902.1145,1.1522161361775414,684.6371723928603
3903.0122,1.1659371752326775,757.4182130167814
3903.912,1.1788178195980497,582.3630949208537
3904.8103,1.1892926261433736,656.4434284408254
3905.7107,1.1967494477159115,659.841140765914
3906.6094,1.2017011514799392,632.9844786191169
3907.508,1.2056019238768227,642.4066043314798
3908.409,1.2100443696929097,657.1975764335964
3909.308,1.216076585328376,720.788639565346
3910.2097,1.2240550902960168,608.8873963284274
3911.1091,1.2336321872977647,623.5600891537485
3912.011,1.2440617222874477,583.5467431428159
3912.9111,1.2541446800355358,648.7681345340135
3913.8113,1.262679525727183,561.2927067183759
3914.7136,1.2688747438271992,527.2513459628912
3915.6143,1.2727439027020382,594.0711533137528
3916.517,1.2751977947970554,591.3826168562313
3917.4182,1.2774467178316236,634.4004204722479
3918.3215,1.2803319295807696,553.1960123034692
3919.223,1.2838944850328495,448.0785372121736
3920.1245,1.2876388361135724,525.9095553985956
3921.0286,1.2910354903000012,614.6451586478
3921.9307,1.2937905430989198,573.5593300942932
3922.835,1.2957959119542681,597.1680303901217
3923.7373,1.296883466175842,517.4976879248079
3924.642,1.2968897107777404,538.4677724050193
3925.5452,1.2958165783608484,537.8071736959494
3926.448,1.2938753273060566,566.8022442977394
3927.3535,1.2912826942369775,540.0111496063992
3928.257,1.2881099105605949,583.1312177822258
3929.1628,1.2842818606433324,575.7244353945431
3930.0667,1.2798324636288616,560.4696842898527
3930.9731,1.2749059986005165,620.0701977207534
3931.8774,1.2697377717400513,524.0326212020094
3932.782,1.264507705701401,584.4689808685614
3933.6887,1.2595115097827374,490.83430184001475
3934.5938,1.2552546589677822,613.6117813287507
3935.501,1.2520808990292593,595.9639473317056
3936.4062,1.249765654400076,643.3279424951984
