wavl,flux,ivar
3566.9744,2.0178274169552863,255.692745128018
3567.795,2.0180066637502536,262.8563517710917
3568.6177,2.0175980900572155,271.4761382210232
3569.4385,2.015717669748712,267.12883623554615
3570.2617,2.012322938513556,254.44138799115112
3571.083,2.008113356576284,278.6090513142559
3571.9065,2.0042043245265475,272.4014818579775
3572.7283,2.0017412975590427,266.9196108526108
3573.55,2.0013110521958706,279.4651311952602
3574.374,2.002820343406438,249.37744637505557
3575.1963,2.005866552086611,323.65537756517915
3576.0208,2.010350792865861,265.4278227393841
3576.8435,2.0165392722163906,265.7349361612528
3577.6682,2.0246144457992727,281.3002746620846
3578.4915,2.0338850163384534,277.2129366055971
3579.3145,2.0427646226825176,247.59955287980273
3580.14,2.049375731973826,244.2543741742909
3580.9636,2.052374555841627,254.75088744697584
3581.7893,2.051468099337554,253.05668783141695
3582.6133,2.0470499467115584,241.88674415077998
3583.4395,2.039637595712117,231.07353171773917
3584.264,2.029769991935095,254.8656535344695
3585.0884,2.0181705167563337,239.30674165394657
3585.915,2.006093404417776,272.6565790841459
3586.74,1.995407777633315,283.68374782472756
3587.5671,1.9878859892830205,301.23333322067106
3588.3923,1.9845932534978175,296.1787431183069
3589.22,1.9852063244383311,250.75419235622894
3590.0457,1.9882543478696724,242.2800405339545
3590.8716,1.9919284087890463,249.70452955074927
3591.6995,1.9949570054817827,269.17472891381504
3592.526,1.9969421918277117,335.5013431185775
3593.3542,1.9981831983760077,275.53858101672245
3594.181,1.9991742785663136,284.79221049066774
3595.0098,2.000243007079261,269.2422922209888
3595.8367,2.0013165472340466,264.5956718797234
3596.6638,2.001867705856832,284.3254267553639
3597.4934,2.0010137035429314,269.5669677067626
3598.3208,1.9979598336223503,272.9366647956708
3599.1506,1.9925935798795447,278.6523141467593
3599.9788,1.9858725223166354,282.7978792409398
3600.8088,1.9793568503794883,248.43610925895837
3601.6372,1.974505274777934,316.91014787475683
3602.4678,1.9720039137100693,288.86890134808357
3603.2964,1.971801706186114,266.3391481699167
3604.1252,1.973211208298017,270.3859745936663
3604.9565,1.9750029421786932,312.3116825204899
3605.786,1.9755649811861398,288.97374320649067
3606.6172,1.9735883677085433,261.5393909466559
3607.447,1.9689113776339222,258.19376455849664
3608.2788,1.962692260085753,266.0837103917476
3609.109,1.9566562265732137,308.03800627407514
3609.9392,1.9518564042897113,307.8294021411897
3610.7717,1.9483224623541673,270.528990976587
3611.6023,1.9456064836241016,277.20812352484955
3612.435,1.9433769100011127,292.95904414593014
3613.266,1.941597683132821,283.3237180087282
3614.0994,1.9403075453880825,267.80056774499207
3614.9307,1.9396216554337615,274.0454561492516
3615.7625,1.9397389040139965,289.5087176150789
3616.5962,1.9407973017091857,292.5488262756988
3617.4282,1.9426488641480437,277.0533331121532
3618.2625,1.9449124042981702,274.29117810067817
3619.0947,1.9471203812050943,275.7782341932778
3619.9292,1.9488146570436273,287.454588099585
3620.762,1.9494777953690923,294.6636981834034
3621.595,1.948659304048149,274.73622007582856
3622.4302,1.9461450177526851,314.53160865238186
3623.2634,1.9421047109275178,283.8572896962937
3624.0989,1.9370536919698917,295.08185723922435
3624.9326,1.9318937219581322,278.5359354363253
3625.7686,1.9276395635594614,311.50017330988516
3626.6028,1.9250873346637745,238.52886547044233
3627.437,1.9243901106497756,335.8536040094554
3628.2734,1.9252115664905538,281.9636106334813
3629.1082,1.927156622455821,275.4662545285272
3629.945,1.9300606386604318,320.8350430664664
3630.78,1.9337937733424384,278.7208613952172
3631.6174,1.9380187427206952,278.90698494592067
3632.453,1.9420245642556673,297.64270152306153
3633.2883,1.9449505095142035,254.28140757781642
3634.1262,1.946037049675356,291.4121968264856
3634.9622,1.944986768722622,278.47600483325186
3635.8005,1.9422188574964723,272.07700182481204
3636.637,1.9387670505225303,320.4553213228417
3637.4756,1.9357464634462864,294.4212079734074
3638.3123,1.933898719396792,278.29026624973307
3639.1492,1.9333711561364706,280.38397545096416
3639.9885,1.933941091726306,281.8568772996735
3640.826,1.9352341136900901,271.200187610164
3641.6653,1.9367824571382009,296.7807423207627
3642.5032,1.9379816949041795,292.1869671428721
3643.343,1.9382911731884993,288.10699217841045
3644.1812,1.9375823124430993,314.1660833509041
3645.0195,1.9363022357166984,265.16047152600424
3645.86,1.9351490386929893,282.0965720399634
3646.699,1.934538122496833,306.0204636400654
3647.5398,1.9343288197380086,296.2885296492764
3648.379,1.9340972611726481,267.3773262800359
3649.2202,1.9336108883484382,297.19695369529006
3650.0596,1.933065254435417,283.0118466167267
3650.8994,1.9328713090865879,308.80021699993017
3651.7412,1.9332623586329962,297.73025722518327
3652.5813,1.9340669775250454,264.6862529471111
3653.4236,1.9348132881419224,284.6312517090867
3654.2642,1.9349387559036264,263.29257040673207
3655.1067,1.9338971150524293,288.2904619230892
3655.9475,1.9311627322832936,326.5618123615012
3656.7886,1.9263601252270628,271.48702094981974
3657.6318,1.9195572105793748,262.48794356926913
3658.4734,1.9114554265206143,310.29402813259895
3659.317,1.9029877000364126,352.893852692097
3660.1587,1.8950822877271865,269.5307353550216
3661.003,1.888521131446585,262.00042654598
3661.845,1.8842552394079466,329.7729581031868
3662.6875,1.883041251121229,325.98250806064425
3663.532,1.8849347919521595,287.5029184725642
3664.3748,1.8889995004772095,265.3053084392383
3665.2197,1.8937923033577957,296.6320097413492
3666.063,1.8978726923744593,322.5009673950282
3666.9084,1.9000318133904257,308.86086446483694
3667.752,1.8992543253586827,306.05910814827547
3668.5977,1.895118338135563,255.61351815427386
3669.4417,1.8882902326028386,288.7414657143161
3670.286,1.8804088345888854,279.7936725618668
3671.132,1.8733874970693019,304.8126509006641
3671.9768,1.8686607342404384,326.7920466551957
3672.8235,1.8667160540842673,294.248334614939
3673.6685,1.8672365434592453,293.37083569815513
3674.5156,1.8693164795050348,314.8418386219234
3675.3608,1.8717104394105786,299.56907975426446
3676.2063,1.8731625323400816,289.6847241847717
3677.0542,1.872831807440665,238.9275819947716
3677.9,1.8708018839909357,289.97540429238853
3678.748,1.8682219450202113,345.9375796239938
3679.5945,1.8668037617270998,303.2836924930356
3680.4429,1.8677001756371832,386.5347728728566
3681.2896,1.870578408015299,322.39520729263575
3682.1365,1.8736047658687696,306.55041600078505
3682.9856,1.8745034890970436,287.91616383956443
3683.8328,1.8720199252082979,308.8001598582637
3684.6824,1.866715862294489,292.09628635390766
3685.53,1.8605554784010867,338.1487451325566
3686.38,1.855493167830802,334.85483119017346
3687.2278,1.852436789020757,325.96982932995905
3688.0762,1.8509823756931536,319.05967092488953
3688.9265,1.850133991965707,321.019085581804
3689.7751,1.8490786321548647,304.0070259236381
3690.626,1.847558001321109,324.44199974363255
3691.475,1.845874588771235,312.8180140927748
3692.3264,1.8446726343716102,305.2137184293283
3693.1758,1.8446672739291825,352.87428548160483
3694.0254,1.846246197842686,311.64771449025284
3694.8772,1.849205585553592,309.6742838907606
3695.7273,1.8527300725228826,332.5892519311049
3696.5793,1.8557627297622314,326.8846155508367
3697.43,1.8573936145870238,331.9264242553674
3698.2825,1.8573083019463432,302.6447938096423
3699.1333,1.8560170698236722,297.0159871252274
3699.9841,1.8547281004869707,333.53266633323506
3700.8374,1.8546955803789662,306.6893647736816
3701.6887,1.8563729652291403,267.1417915296411
3702.5425,1.8590320855487728,290.03725968087133
3703.3943,1.8611736695619643,299.8672498694069
3704.2483,1.8615202439832577,321.3023892192517
3705.1003,1.8597699683554898,314.6128741052424
3705.9526,1.856723946372914,301.41583478514053
3706.8074,1.8537301090203777,334.4021308791201
3707.66,1.8519433230987785,307.7071659070268
3708.515,1.8517379296280265,329.89229007286593
3709.3682,1.85269761783016,314.67630474773995
3710.2234,1.8540220780874628,294.63079179608116
3711.0771,1.855134189320208,320.4975066870276
3711.9307,1.856064910965187,307.7127816916932
3712.7866,1.857259933381303,330.7073346348314
3713.6409,1.8589994395422194,279.825458696268
3714.4973,1.8610212757947386,284.65099255515076
3715.3518,1.86261492745696,325.26756193124237
3716.2085,1.863102833232859,310.33328292925205
3717.0635,1.862173002077976,334.6938372497995
3717.9185,1.8600123470479282,321.10341053536376
3718.776,1.8572709192166972,311.62501305176283
3719.6313,1.8549285201715713,340.86695789714133
3720.489,1.853825621717441,322.711125252215
3721.345,1.8541605486331167,299.47717728337835
3722.2031,1.8552556626167578,294.50149413001066
3723.0593,1.855972854507476,294.3869660815642
3723.9158,1.855541143730529,299.8388127996775
3724.7747,1.8540867180417067,269.7893326901588
3725.6316,1.8524308173004096,300.7015997360457
3726.4905,1.8512514129134745,292.5998444307784
3727.348,1.8504620524385917,284.9418846309639
3728.2073,1.8493050413456793,317.93147229477177
3729.065,1.847109864983867,296.2547762344672
3729.9229,1.8439632111274433,257.84577579710555
3730.783,1.8407465085224524,319.30673999642823
3731.6414,1.8385131935505319,321.7458347460862
3732.5017,1.837657593150253,329.3816283723149
3733.3604,1.8377034633877545,278.91304652455796
3734.2214,1.8377153695000499,313.76781324400315
3735.0803,1.8369415391947093,344.7258353610758
3735.9417,1.8351550783889465,313.33843247571525
3736.8013,1.832696528899569,359.74014322764214
3737.661,1.8303368293060973,313.6248622273198
3738.5227,1.8290341223746347,318.6007666989803
3739.3828,1.829443842064268,309.9114025139696
3740.245,1.8313893367230643,304.1284456390192
3741.1055,1.8338435799558184,326.67370279038903
3741.9683,1.835629797901386,303.5120440690147
3742.829,1.8362169291586061,311.90043716555016
3743.69,1.8360167413995667,351.75941929502545
3744.5532,1.8358802536440604,314.5132146974231
3745.4148,1.8363566203653832,346.33397613938257
3746.2786,1.8373040194276777,332.650868545648
3747.1404,1.8380978699835842,297.68591287970816
3748.0044,1.8381717142017648,319.74596237963374
3748.8667,1.8373490319284251,330.4929336108701
3749.729,1.8358206427313155,304.9301098115661
3750.5938,1.8339805945443135,337.76113992965634
3751.4565,1.832385185454596,322.7373900008351
3752.3215,1.8316188386314407,349.7116152592289
3753.1848,1.8319907051925237,332.24799083413814
3754.0503,1.8331616115406555,309.9121861874481
3754.9138,1.8341591722885848,310.80678874075716
3755.7776,1.8338985836009605,296.3669407649031
3756.6438,1.831789881473467,318.65765298703036
3757.508,1.8280724574214353,307.8612429818047
3758.3745,1.823597786012311,330.4988519626308
3759.239,1.8194317440709933,332.5501059139831
3760.106,1.8163449916981294,316.42486005269535
3760.971,1.8146668322958042,305.53796752401325
3761.8362,1.8142365464153474,328.9930209279376
3762.7036,1.8146166382402056,337.3530851024344
3763.5693,1.8153120870176298,340.45174533766937
3764.437,1.8159356575447516,325.17205467156816
3765.3032,1.8162423562559298,326.06997414364145
3766.1714,1.816140349860341,324.22596279328513
3767.0378,1.8156634096471882,351.5996579891663
3767.9043,1.814833265014551,315.9356081209879
3768.7732,1.813472285806311,335.06775000208984
3769.6401,1.8112718020228011,334.2008219142614
3770.5095,1.8081497121681185,304.9021227458797
3771.377,1.8046486888601587,339.48487224537536
3772.2466,1.8017317617230606,400.81234886496947
3773.1145,1.8002454063452074,331.91765501847306
3773.9824,1.800426047876315,304.28940829967183
3774.8528,1.8020491905040346,307.7994210727886
3775.721,1.8047902650612913,330.1663487983628
3776.5918,1.8084010236141257,315.05748937711434
3777.4604,1.8124892588398906,345.35965462141667
3778.3315,1.8165249821979732,339.0455199088062
3779.201,1.8199726968217802,387.6428665361971
3780.0703,1.8225944853707263,370.8901134051277
3780.942,1.8243872857020154,318.5302190051458
3781.8118,1.8253221074391988,334.27948266485083
3782.6838,1.82515056135382,299.06423739994443
3783.554,1.823396695513999,332.01902917584334
3784.4265,1.819577937793546,328.13820312756803
3785.297,1.8135903690750634,307.49065481239546
3786.168,1.8059348891220304,314.581909176674
3787.041,1.7977324399424526,332.78157456185585
3787.912,1.7903692192255152,355.3259327735724
3788.7856,1.7846521271422413,326.60528597522057
3789.6572,1.7804402971735245,343.34498558705263
3790.531,1.7767204092316489,322.46124992503394
3791.403,1.7725177338887943,372.3095419249797
3792.2754,1.7675881013436991,317.70721137146825
3793.15,1.762493742428766,365.8454851715257
3794.0225,1.7580855120488712,356.13808913103446
3794.8972,1.7548740598158143,358.6089782643468
3795.7703,1.7529809399398737,369.8616797725377
3796.6455,1.7522631643307138,372.6346223169776
3797.519,1.7525556123061132,310.89159982980794
3798.3926,1.7537457238314258,348.7711414450454
3799.2686,1.7557406804828377,368.7679534019999
3800.1426,1.7583114333149386,365.0517606641678
3801.0188,1.761100852542364,371.817116823638
3801.8933,1.7637674061638184,331.303081037708
3802.77,1.7662425685093668,337.6276542077069
3803.6448,1.768636039132125,333.537884356439
3804.522,1.7710577652085753,306.282926436032
3805.3972,1.7735190083845611,321.5024338251333
3806.2727,1.7761825051800377,360.45944230440807
3807.1504,1.7794729216404512,362.44873658687266
3808.0261,1.783816922815214,339.2049342350983
3808.9043,1.7892822653017153,351.0183047354094
3809.7805,1.7952893069110911,340.45835582025677
3810.659,1.8009231689520557,354.2010748473693
3811.5356,1.8052819150478174,382.0626471662498
3812.4126,1.8079404133143144,318.4560828673561
3813.2917,1.8089795233039483,340.2114274289789
3814.169,1.808799897263747,311.253580712486
3815.0483,1.8078543087168566,312.92842031935936
3815.926,1.806470956629897,364.17170367292897
3816.806,1.804796524494665,361.5469143560884
3817.684,1.802818630539024,345.1662456281661
3818.5623,1.8003444609747714,326.56303077299464
3819.4429,1.797062956976137,309.0419651756723
3820.3215,1.7927265144010325,330.1786191948178
3821.2024,1.7872248889112194,347.39278047696996
3822.0815,1.7806501679876796,335.2640619340105
3822.963,1.7730767022880491,337.2461384623695
3823.8423,1.764683005466521,359.4110251788461
3824.722,1.7558502542493715,344.7288709100298
3825.604,1.7473722030418546,342.9103191909732
3826.4841,1.7402640383468533,370.8141307772352
3827.3665,1.734988159511988,378.80285099504397
3828.2468,1.7310718990402683,347.28486777959114
3829.1296,1.7271166570694942,369.79917501549755
3830.0105,1.7216460030986602,388.1297398586422
3830.8916,1.713924572937335,372.56798918036066
3831.7751,1.7043993427459316,360.40786182518565
3832.6565,1.6945715716859562,378.9531410920636
3833.5403,1.6861878460231638,389.2644441434188
3834.4224,1.6807509697691516,441.2050730456232
3835.3064,1.6789359128457824,384.4535425631127
3836.1887,1.6806159353564556,395.3766012639134
3837.0713,1.685122407931998,388.9712124352625
3837.956,1.6917437641027628,326.0590956341189
3838.839,1.6999697316956681,398.3353130761661
3839.7244,1.7096072071956898,347.12362810480056
3840.6077,1.7203962816626424,341.6464625951174
3841.4932,1.7319062594364145,372.37061028684053
3842.377,1.743211587082813,378.1924195595962
3843.261,1.7532390728201046,343.32560345024604
3844.1472,1.761162507893808,353.1621962198579
3845.0315,1.7668739727212612,343.02866109981704
3845.9182,1.7712089514050873,327.2997468104208
3846.803,1.7753786313570177,363.4103949638641
3847.69,1.7803758784847186,346.66692193848405
3848.5752,1.7864073280998594,357.10969577698154
3849.4604,1.7929364947703943,331.29445054150887
3850.3481,1.7990453706997274,302.19308743816265
3851.234,1.8039444715772017,317.19602575212826
3852.122,1.8074876770651354,352.8194289044954
3853.0083,1.8101016914528216,322.27036331701305
3853.8967,1.8125374387462787,324.31619417259907
3854.7832,1.815390423602957,318.1431543961121
3855.6702,1.8188639418284087,353.87612334070445
3856.559,1.822725530104081,329.75690210002807
3857.4463,1.8264718863283311,326.8835433621192
3858.336,1.829620006929539,329.8873468710303
3859.2234,1.8317610817059207,314.7054328051601
3860.1135,1.832622349724783,299.23333772427293
3861.0015,1.8320417351664549,323.8758501386823
3861.8896,1.8300704017964717,334.14345403655693
3862.7803,1.8269840072533063,298.5164016261121
3863.6687,1.8231953876031484,324.39517109008756
3864.5598,1.8189579895895227,328.9246600666238
3865.4487,1.8143043874050375,299.838268159699
3866.34,1.809037139139807,336.5342371003788
3867.2297,1.8030441578092926,355.428504193733
3868.1213,1.7963924281151484,324.8278312347798
3869.0112,1.7895033018873543,344.6937601346954
3869.9014,1.7829579336118304,337.36436932777656
3870.7937,1.7772345194839885,377.6639906332683
3871.684,1.77238767876809,373.30505726113324
3872.577,1.7678643155686737,336.49552092553546
3873.4678,1.7628837326684608,333.4356417713202
3874.361,1.7567471597012863,371.6052217128112
3875.2524,1.749137152264646,375.34633521301555
3876.1438,1.7399198327406087,353.0907628679032
3877.0376,1.7289726431596733,344.8978944627234
3877.9297,1.7162337637228695,338.3660784916021
3878.8237,1.7016537589755352,368.33947817850475
3879.716,1.6855854231098029,385.1168831857981
3880.6108,1.6685989830015275,375.9198562525628
3881.5037,1.6516552976330567,365.64436801744904
3882.3965,1.6355340841984058,412.3045878967724
3883.2917,1.620568370537226,395.3265579599077
3884.185,1.6065128393354116,408.49685538800804
3885.0808,1.5924510858857124,450.3201426150954
3885.9746,1.5777156177909413,412.2938604390412
3886.8706,1.5623750915781707,432.38051418598843
3887.765,1.5478601230076625,453.33052154634345
3888.6592,1.5363488899768434,462.113166807258
3889.556,1.529970717323227,496.0638645289533
3890.4507,1.5299417143752017,487.3032555989143
3891.348,1.5360662700517198,472.3861801798453
3892.243,1.5468993866364449,429.71146246727614
3893.1406,1.5605038238012912,475.033733842689
3894.0361,1.5751137872048886,474.69850857216096
3894.932,1.590028540639638,414.82751559585586
3895.83,1.6054585475781356,448.2071945324208
3896.7263,1.6216724746786728,442.2207410999038
3897.625,1.6385239161292369,444.0489482001803
3898.5215,1.6550964734631755,369.69909743246035
3899.4207,1.6706705436211153,370.9104739947072
3900.3176,1.6849571844215516,401.55583938455754
3901.2148,1.698385028476234,377.48764564849563
3902.1145,1.7114705907034629,341.51913765386416
3903.0122,1.724272291065908,367.3747473249492
3903.912,1.7365071686932725,312.0773823100837
3904.8103,1.7475761771746265,332.476098866154
3905.7107,1.757186462065062,339.4626400914687
3906.6094,1.7654805672395522,350.74817483137736
3907.508,1.7732292054546117,356.57556764024343
3908.409,1.7814789792967578,353.90415919251535
3909.308,1.7909595443988175,311.33178259626317
3910.2097,1.8016913440132347,333.9183390921099
3911.1091,1.8126479187208417,323.3150631095934
3912.011,1.822393855716171,333.35846790247615
3912.9111,1.8297088804038835,311.58531256306696
3913.8113,1.8344344923741642,305.79872680724174
3914.7136,1.8374313166688603,335.81851099075794
3915.6143,1.839963675786628,328.42895690831847
3916.517,1.8429706909490535,339.2764572291654
3917.4182,1.8466299566650881,295.9248304880934
3918.3215,1.8505705744674128,314.863728572061
3919.223,1.8542306358005771,313.6657393622318
3920.1245,1.8572440296337622,309.5233464187227
3921.0286,1.8594829186270836,328.2674222143089
3921.9307,1.8609243543534877,326.71141955791086
3922.835,1.8615266882768104,312.71812685559956
3923.7373,1.8611894069153885,291.4993698127046
3924.642,1.8599348025004836,307.83235984029983
3925.5452,1.858114878879535,325.47091253637274
3926.448,1.8564068042422708,323.9450510317753
3927.3535,1.8555529511157702,299.43530865308617
3928.257,1.8559509544665274,317.57660877392533
3929.1628,1.857313190721255,315.2146013973802
3930.0667,1.858642501556537,281.03079968609103
3930.9731,1.8586052710631749,307.78881611931797
3931.8774,1.8561487272003807,304.60571321432144
3932.782,1.8511190954126364,309.7385346217864
3933.6887,1.8444656226770773,336.12245553245737
