wavl,flux,ivar
3566.9744,2.955587505097687,309.61637886568496
3567.795,2.946937515327451,322.57840370539384
3568.6177,2.935798350222103,350.55042970601085
3569.4385,2.924583465427392,338.14169954396027
3570.2617,2.9150517561797273,332.39357861492476
3571.083,2.907927885685242,350.6676173941557
3571.9065,2.9027500535226376,361.2120064642898
3572.7283,2.898564518516644,361.03664601782947
3573.55,2.8945797770385266,337.94809264969825
3574.374,2.8907309041796734,334.9594748299262
3575.1963,2.887678896223693,350.23760216587505
3576.0208,2.8862359371567847,330.3046184982109
3576.8435,2.8868322141634697,376.7042811100298
3577.6682,2.889265701249062,355.13038003670533
3578.4915,2.8928902313200964,324.3631943052286
3579.3145,2.896921542558113,339.7061512212436
3580.14,2.9004855896713617,367.157147490256
3580.9636,2.902493572514984,339.44669033426
3581.7893,2.901889611908153,343.7029691640087
3582.6133,2.898230404582369,339.59847165003595
3583.4395,2.892204016167562,342.7070371826838
3584.264,2.885503347971471,385.62526043857065
3585.0884,2.8797859073835195,354.4900869432201
3585.915,2.8757503015226686,365.85020813281704
3586.74,2.872982616913467,318.2784015806208
3587.5671,2.8705213619227803,345.66787972044955
3588.3923,2.8676637657706694,353.8999035257353
3589.22,2.8641524428797736,353.4409322660079
3590.0457,2.860060077910047,334.9046721482952
3590.8716,2.8555862074075984,350.0528792056695
3591.6995,2.851134178686055,361.9508447473651
3592.526,2.847290755193545,364.81791679277933
3593.3542,2.8444241803750905,376.1936717657286
3594.181,2.8423887293731545,333.4540337580092
3595.0098,2.8404971392988343,375.8669015110625
3595.8367,2.837962903837935,364.4240606800811
3596.6638,2.8342842742217003,333.5816807323815
3597.4934,2.8294385221947196,345.5382659782796
3598.3208,2.823909020754249,379.02784796409696
3599.1506,2.8184346596168184,369.0578836966263
3599.9788,2.8138573612073974,379.68378999552294
3600.8088,2.8106527543690665,373.0508404674116
3601.6372,2.8086802410805247,359.0625489028161
3602.4678,2.807120655550331,344.4151288198929
3603.2964,2.8050182291755044,342.00613237261393
3604.1252,2.8019749522573485,363.64622542927236
3604.9565,2.7984872147360447,372.57949375655653
3605.786,2.795537323643132,358.19745453141365
3606.6172,2.79364729009196,370.90794360373275
3607.447,2.7924172634971516,362.0128145564364
3608.2788,2.790833368526255,374.5068304275742
3609.109,2.7881328742479465,391.4575410617127
3609.9392,2.7843059778616754,360.91311255950427
3610.7717,2.7799518764184588,391.077483557094
3611.6023,2.775839922701034,354.44309178848454
3612.435,2.772490425378911,379.5598019468354
3613.266,2.7701333573451077,374.31126319058444
3614.0994,2.768603119828842,356.7871421998771
3614.9307,2.767401772628865,373.96807932371956
3615.7625,2.7658998960619887,389.80162197877945
3616.5962,2.7637819002886785,392.8106566355562
3617.4282,2.761345773018269,398.72949931668967
3618.2625,2.7592378679419505,368.4425375797925
3619.0947,2.7578954417367156,410.95383738220096
3619.9292,2.7571831915611473,389.47308780081784
3620.762,2.7567168213435504,372.61165997719377
3621.595,2.756356828308538,385.48999467984515
3622.4302,2.7563267726252545,379.181643762438
3623.2634,2.756883050179034,375.3023997982009
3624.0989,2.7580092462593924,349.89908701941255
3624.9326,2.7594013204072634,397.2532468378578
3625.7686,2.7606526459583756,391.3158590055603
3626.6028,2.7613828674449463,373.49362534140533
3627.437,2.7613882395611626,354.4007597748079
3628.2734,2.7607103905632084,383.29477091259093
3629.1082,2.7595415928610767,360.72655923494483
3629.945,2.7579200120146403,412.6206001503708
3630.78,2.7555729976337053,384.54412581671636
3631.6174,2.7520863632579817,345.07535220833944
3632.453,2.7474392386864253,379.9808048292015
3633.2883,2.742277890722281,377.24820620875295
3634.1262,2.737735975765769,379.9400936386981
3634.9622,2.7347559718500585,407.40992854407807
3635.8005,2.733264197647471,378.6639185192253
3636.637,2.7321472053233125,357.0903148934072
3637.4756,2.7300176063941937,411.5387237352452
3638.3123,2.7264045321655797,374.6232212883057
3639.1492,2.722279984709357,342.57995608853275
3639.9885,2.7195312567912735,451.0606410402162
3640.826,2.719725620653231,395.91125255196454
3641.6653,2.723126996880342,377.8771361669323
3642.5032,2.7287748186314165,389.2267725408314
3643.343,2.7353078146149494,392.77643283517426
3644.1812,2.741476419954906,406.39274801531195
3645.0195,2.7462949887064587,363.01157489050644
3645.86,2.7489232365229817,359.03102108796844
3646.699,2.748882592144499,384.9313867382151
3647.5398,2.7464225057464837,384.42568765055745
3648.379,2.742541125898904,415.5442492371997
3649.2202,2.7385364811069017,380.96188662699063
3650.0596,2.7354651335168114,391.12768012056927
3650.8994,2.7336850637347125,414.7812068900617
3651.7412,2.7329913645855233,410.99075038717615
3652.5813,2.733078105562954,374.4604834007494
3653.4236,2.7339110033103564,381.8481603404243
3654.2642,2.7355841492783526,412.1857412777102
3655.1067,2.737831155557334,358.94477872591693
3655.9475,2.739763967656692,372.9040781673689
3656.7886,2.740331706139858,356.5567460459769
3657.6318,2.739051293215047,403.96273727707586
3658.4734,2.736391860893339,396.2703297703704
3659.317,2.733371199524227,419.1418722307596
3660.1587,2.7308415658973733,390.4669740396671
3661.003,2.728998781649348,387.5197080432618
3661.845,2.72761345150753,384.01641272734884
3662.6875,2.7265461080746283,370.22175970817545
3663.532,2.7261451203346887,390.4965172433566
3664.3748,2.727094904886869,377.8247678926468
3665.2197,2.7298468508618354,397.66194036786624
3666.063,2.7340375250420856,375.5539693673707
3666.9084,2.7384582334042347,380.85183104278343
3667.752,2.7415625998204147,371.37666387367443
3668.5977,2.7424437085804128,348.81938389609513
3669.4417,2.741375313842385,388.5509590910706
3670.286,2.739640751261119,379.39774380367993
3671.132,2.7386422501169765,394.93626129115916
3671.9768,2.7389948009865543,400.365046337732
3672.8235,2.7402381090663095,392.67158470166623
3673.6685,2.741375642726028,409.2214122831149
3674.5156,2.7417258091566925,381.1550232232719
3675.3608,2.7412671618392195,379.7366398731636
3676.2063,2.7402739637237516,414.16436458125827
3677.0542,2.738739699985264,383.3955475943258
3677.9,2.73631519065339,377.0996985861082
3678.748,2.732727080979094,405.5666143421911
3679.5945,2.7282797183480496,421.59294188232735
3680.4429,2.723779892606276,373.59866531402093
3681.2896,2.7201780575850405,385.954208405677
3682.1365,2.7180028611983498,433.60130124369607
3682.9856,2.7171456519289943,409.2805206976193
3683.8328,2.716980619321144,339.35919156826935
3684.6824,2.7167901471614044,412.72633812369537
3685.53,2.716236635083276,353.21984878940134
3686.38,2.715539604223744,364.5975067217939
3687.2278,2.7152949722271384,389.0511188978184
3688.0762,2.7160110751175846,396.9186776159908
3688.9265,2.717624376943985,382.47704408541694
3689.7751,2.7192487470253566,375.27717054976034
3690.626,2.7195076906708193,402.7369002834434
3691.475,2.71732069963132,405.507511845672
3692.3264,2.7126682874350765,371.8657798830103
3693.1758,2.706724802383696,411.28120063121935
3694.0254,2.7010411605310454,400.2160373633868
3694.8772,2.6965734181657526,407.9928688570217
3695.7273,2.693238282861297,401.5286806078368
3696.5793,2.6902008840088825,409.24993184788366
3697.43,2.686728309298315,394.55591052154165
3698.2825,2.6827115757732534,393.65626307948986
3699.1333,2.678713926291126,387.03185904706766
3699.9841,2.6753899386478848,383.8454138282532
3700.8374,2.6729097635559076,421.5151254608535
3701.6887,2.6707875811140016,379.31453513284384
3702.5425,2.6682390974435606,401.86597917046197
3703.3943,2.664907583055783,403.7053845653531
3704.2483,2.6611813861968066,410.9976198826973
3705.1003,2.6579955746310886,418.00166243535466
3705.9526,2.6560591831268576,416.93151851512835
3706.8074,2.6552735753085837,413.137512246032
3707.66,2.654696583123261,404.72794274049926
3708.515,2.6531532551341472,410.5715479444812
3709.3682,2.650084339582642,387.73620108420596
3710.2234,2.645892485270792,391.2697585809714
3711.0771,2.6416244243355114,397.94115501577687
3711.9307,2.638114444069401,421.47130629401363
3712.7866,2.635422630592956,433.7404983049778
3713.6409,2.6329401745886196,408.6929472300414
3714.4973,2.629975438622501,428.40688613372805
3715.3518,2.626486055313294,405.16246642138225
3716.2085,2.6232422109192752,426.68453766024624
3717.0635,2.621458105057954,474.4348240633955
3717.9185,2.6219242905478573,416.4473044156576
3718.776,2.624459892641635,414.5841077357815
3719.6313,2.6279833673223627,411.9939145179852
3720.489,2.6312237839223216,434.1570444639342
3721.345,2.6332602421033555,416.37868075346483
3722.2031,2.6336802527377228,412.60062545362865
3723.0593,2.6323461709647966,426.3238589240062
3723.9158,2.6292886797016752,394.57514001837546
3724.7747,2.624703750733772,436.0289156621755
3725.6316,2.61894511893717,444.99086019741526
3726.4905,2.6122705421370633,427.35024177105345
3727.348,2.604912384208758,431.883683007953
3728.2073,2.5971724247942087,434.89385278741145
3729.065,2.58969889119038,454.45286892964293
3729.9229,2.5832392263827715,426.5207929453501
3730.783,2.5783782795690615,418.3995099130792
3731.6414,2.575330180677303,452.80659340940286
3732.5017,2.5738483833201777,424.47697831865526
3733.3604,2.5734048998864187,453.94823732470695
3734.2214,2.57333900693088,432.46949261402347
3735.0803,2.573042975407183,432.52539514144013
3735.9417,2.5720648600012392,438.72457018982277
3736.8013,2.5701607926205874,416.3406597100608
3737.661,2.567289586758433,444.14514491237446
3738.5227,2.563599128615905,430.07550689371885
3739.3828,2.559442303494155,476.50005802198086
3740.245,2.5552781216833202,442.7216741634115
3741.1055,2.55165884784223,453.98092776603227
3741.9683,2.548987729795097,436.2427560295805
3742.829,2.547356996877554,447.66347645176523
3743.69,2.546351316488024,464.83517533169874
3744.5532,2.54522676048233,471.0969006103496
3745.4148,2.5433964339072355,416.8461415224388
3746.2786,2.540876489556228,471.7249008802815
3747.1404,2.538316616926657,451.43356162217293
3748.0044,2.536451951833199,433.9847205335519
3748.8667,2.5356211117342737,439.8207810309207
3749.729,2.5356531092583827,499.3157069427482
3750.5938,2.5362118106442675,437.7617317878502
3751.4565,2.537099265769195,441.4213799831352
3752.3215,2.538277120221625,446.0342809618858
3753.1848,2.5396311393608477,430.290061397514
3754.0503,2.5408067542517054,427.9860824798384
3754.9138,2.5411897338522595,428.36048768575574
3755.7776,2.540115292748885,424.2868235397137
3756.6438,2.5371660481003997,429.57898268758544
3757.508,2.5325116203704794,467.86184511286467
3758.3745,2.526859730080825,476.40906976472576
3759.239,2.521156842785521,435.85649603782355
3760.106,2.5160017899883598,452.50966282851556
3760.971,2.5115737539783747,456.48769852330025
3761.8362,2.5077791278037718,462.7092645487259
3762.7036,2.5046698765620623,478.1628361278329
3763.5693,2.5025681907717003,441.84032864053813
3764.437,2.5017753360716304,461.18882187122176
3765.3032,2.502281426041012,461.349066359378
3766.1714,2.5036841959548535,465.1467819419106
3767.0378,2.505369194940876,497.7202910255338
3767.9043,2.5067080213563546,463.33167454348256
3768.7732,2.5071212343235927,445.0041077426491
3769.6401,2.506175929622344,463.67060006619613
3770.5095,2.503793078210756,503.08976707031076
3771.377,2.5004504997181676,440.7306385367823
3772.2466,2.4970881783197427,433.4136605155719
3773.1145,2.4947753311314713,457.1839611039546
3773.9824,2.494086818867663,505.6974193783595
3774.8528,2.4947923046357148,455.3601255164817
3775.721,2.4960764605543866,426.95208057694407
3776.5918,2.497234338735154,481.50796777045275
3777.4604,2.498131591713435,493.3351737763471
3778.3315,2.4990774266287374,456.16917392575874
3779.201,2.5003194802565467,471.5115076265437
3780.0703,2.501845204982923,460.78412713815226
3780.942,2.5035256856532464,445.46416069365597
3781.8118,2.5051753001490664,477.7605249294214
3782.6838,2.5063791051605304,440.86802128176663
3783.554,2.5063808178167,441.1819108656229
3784.4265,2.5044793554796523,418.558375329483
3785.297,2.500596863530779,461.38257023456134
3786.168,2.4954014701698664,467.2331026193129
3787.041,2.4899224945378458,412.75589035702444
3787.912,2.4850949145531573,512.2667340346325
3788.7856,2.4814138339453287,456.5669838915012
3789.6572,2.4790033141129197,464.535159723929
3790.531,2.477592745127725,467.3999726199219
3791.403,2.4766221665583985,440.13972873783996
3792.2754,2.4753149487623007,458.6850032872847
3793.15,2.472879894393857,500.6032521749621
3794.0225,2.468832841593524,510.5077134795889
3794.8972,2.463252748076834,512.1351579940989
3795.7703,2.4569534545372074,468.1063862023345
3796.6455,2.4511529355077584,477.92373149256224
3797.519,2.447090336690332,463.4084994673146
3798.3926,2.44543079507914,518.5602838633076
3799.2686,2.4460118341006445,495.2805960589115
3800.1426,2.447885823193213,495.0010602703139
3801.0188,2.4498276822112803,456.86709002677003
3801.8933,2.450945917774957,493.53148036682654
3802.77,2.4510336994253676,502.7049711387038
3803.6448,2.450452607327634,491.97752125121286
3804.522,2.4498926948018784,488.98014090343725
3805.3972,2.4501697503562063,498.37537045463
3806.2727,2.4519208495813474,539.126874471379
3807.1504,2.4552042738148336,478.1582601132372
3808.0261,2.459256566656362,486.4168362199013
3808.9043,2.4628797236584896,481.4445580079211
3809.7805,2.4650568215609905,503.3149828942239
3810.659,2.465491269705593,488.59079396161525
3811.5356,2.4644999823075193,486.35496090765974
3812.4126,2.462632336335945,485.27300248309876
3813.2917,2.4603591398856235,452.7817788289234
3814.169,2.458021927807638,453.9175234894807
3815.0483,2.4557471062160956,483.30298342977255
3815.926,2.4533994079301418,491.45245546799055
3816.806,2.450629116059726,463.6226296364083
3817.684,2.44726542631432,456.64414148262256
3818.5623,2.4435462841657754,506.5138661732927
3819.4429,2.439975111019399,500.1264367721133
3820.3215,2.436895267573472,459.5540318752578
3821.2024,2.4340927409873436,484.4792853787163
3822.0815,2.4309074672891113,489.93118255872736
3822.963,2.426548720359861,438.01789716648943
3823.8423,2.4205979350825624,527.5391533455295
3824.722,2.41313796761005,512.6412830536914
3825.604,2.4045838887921023,509.6050698023331
3826.4841,2.3953922082308203,493.05035059045457
3827.3665,2.385746364031822,499.76372295696433
3828.2468,2.375913596516712,509.71886197705334
3829.1296,2.3662953791945625,511.49038839177746
3830.0105,2.3575404107215734,531.7475910149005
3830.8916,2.3500502460213983,484.9792603246658
3831.7751,2.3438545267537836,515.7844299287735
3832.6565,2.3387285390284624,489.67578395007524
3833.5403,2.3342732811007023,533.4179399138626
3834.4224,2.330112875594546,555.5032113387381
3835.3064,2.3258750707098144,540.8390024939397
3836.1887,2.321506996767675,532.3275359931432
3837.0713,2.3175194575265796,577.3120582177013
3837.956,2.3149927408874706,522.2366865450073
3838.839,2.315046084706126,535.3283741140589
3839.7244,2.3181567064849244,527.565182115101
3840.6077,2.3239784314429057,506.69178162788415
3841.4932,2.3317869220525167,535.0892419704699
3842.377,2.340859577509894,548.4258991171287
3843.261,2.3507355255189792,508.8465469611797
3844.1472,2.3610196531184924,516.268237021963
3845.0315,2.3711238280106133,536.0803633548697
3845.9182,2.380422372659819,527.9946985265144
3846.803,2.388241914962247,505.7060228738062
3847.69,2.394293472862718,500.021687314627
3848.5752,2.398649380252511,477.5217144008723
3849.4604,2.4017243795195733,517.4833104508953
3850.3481,2.4039835536483642,491.4327960486333
3851.234,2.4057967081535407,505.6269048002996
3852.122,2.407502974100653,487.9588064133271
3853.0083,2.4094177815094144,501.6466232330717
3853.8967,2.411801160959732,521.6001337211725
3854.7832,2.414667744378654,499.0607792028888
3855.6702,2.4177458284222446,455.26615693258213
3856.559,2.420560273763102,505.2380400867794
3857.4463,2.4226462373676303,497.5888062466491
3858.336,2.423767989128543,485.8580089126381
3859.2234,2.4239146363026443,493.8278234135774
3860.1135,2.4232410183312325,491.3201298917673
3861.0015,2.421955496920022,505.72390630484875
3861.8896,2.420213155835256,467.2759987839585
3862.7803,2.418063563880548,498.4080657997723
3863.6687,2.415510207544249,509.94795835764796
3864.5598,2.4125416935477184,507.30503653104313
3865.4487,2.409171893955031,486.55331617430033
3866.34,2.405268001129619,492.4222449306436
3867.2297,2.400587054089105,493.88051263266533
3868.1213,2.3948519368149164,504.03763155321695
3869.0112,2.38804982697682,474.71105806866444
3869.9014,2.380436608409407,508.9626665977414
3870.7937,2.3724350584137,489.6117515929908
3871.684,2.3644035458034662,517.8308120060123
3872.577,2.3561811373347408,556.2200049889568
3873.4678,2.347126732256171,513.8005677519325
3874.361,2.336279230156261,483.8477192798512
3875.2524,2.3232635580731533,520.123590092981
3876.1438,2.3086851597116507,538.7412891008195
3877.0376,2.294004959158137,563.9067432530903
3877.9297,2.280764025841117,598.8785020467446
3878.8237,2.269451569135118,589.1670741575031
3879.716,2.2595387138006533,543.7477710249519
3880.6108,2.2498047959172167,548.9958007379964
3881.5037,2.239196011396927,560.7889549050085
3882.3965,2.227051509006909,559.8714424892157
3883.2917,2.213241756041311,565.8891841576723
3884.185,2.198216711992337,630.7643416258344
3885.0808,2.1825772367679996,667.6399719997536
3885.9746,2.167151550230805,630.7270011776843
3886.8706,2.152610470498575,611.3903741480358
3887.765,2.139843289425056,604.5638219127158
3888.6592,2.1298684278656537,676.234831823122
3889.556,2.1238767218741508,665.9760702945437
3890.4507,2.122890567262015,650.2916029675596
3891.348,2.127245719544704,643.0870449635976
3892.243,2.1364354828191785,632.4177208465217
3893.1406,2.1494310899828855,650.8675996520197
3894.0361,2.16490857530859,639.69678211572
3894.932,2.1817512729087922,624.8644501838138
3895.83,2.199004653730737,580.2062382418569
3896.7263,2.2157174852963797,596.6149318963301
3897.625,2.2313582747033793,600.4667624209426
3898.5215,2.2457574726259084,575.7408020347734
3899.4207,2.2595709871514638,540.6708069925445
3900.3176,2.273714014988086,571.2730560080741
3901.2148,2.289028124830829,560.6294223322376
3902.1145,2.30563134539959,541.967972527673
3903.0122,2.3227462325479,514.3128582373681
3903.912,2.3395048942715575,533.0087821916308
3904.8103,2.355287359628691,506.4184184168744
3905.7107,2.3701859578348383,506.56792174382485
3906.6094,2.3843188826233734,558.1736640451475
3907.508,2.397589836802855,494.74376006077887
3908.409,2.4096716184221636,468.3696024428642
3909.308,2.420492121969748,484.07382399266396
3910.2097,2.430768568727921,488.5693649717437
3911.1091,2.4413968842089524,478.8082909510726
3912.011,2.452833038473379,488.7176024542622
3912.9111,2.4644736124143667,451.3369565966012
3913.8113,2.4752761545840767,471.5561725001554
3914.7136,2.484480814753898,473.86951326531056
3915.6143,2.4919305678572083,478.89669188779067
3916.517,2.497950203372536,473.72914520948075
3917.4182,2.5027521889874196,436.1128686216676
3918.3215,2.5063945587395096,445.0373953090098
3919.223,2.50894548052662,464.41351620809274
3920.1245,2.510830475470574,474.1859240621443
3921.0286,2.5127358420644237,466.8496108094494
3921.9307,2.5151786247746366,495.0356202519366
3922.835,2.5181271245327204,469.80760929982694
3923.7373,2.5209411719656396,447.3666364781916
3924.642,2.5228390769627698,438.1512328245149
3925.5452,2.523373130301246,466.1940190348232
3926.448,2.522697411123842,462.9656133374936
3927.3535,2.521339222556376,487.9083392840812
3928.257,2.519756589476142,468.8624620235754
3929.1628,2.5179509876365156,487.0814475612707
3930.0667,2.515542625438652,428.8504804984288
3930.9731,2.5121433320923194,456.7293519098612
3931.8774,2.5077797865482636,480.50961161165066
3932.782,2.502789415980035,448.8183766148212
3933.6887,2.4974607577676715,464.0453787876063
3934.5938,2.4917822213199075,449.7918625790432
3935.501,2.485456120947485,478.5214595390556
3936.4062,2.478364672062686,462.36654585879967
