wavl,flux,ivar
3566.9744,2.9208135121629457,114.39917230515725
3567.795,2.9260797963731613,88.54654293301937
3568.6177,2.9254764655714847,86.45192372403014
3569.4385,2.9204415369838816,71.69330243702198
3570.2617,2.91404136513569,114.62459176064117
3571.083,2.909128318493089,99.1374861349372
3571.9065,2.9065820104923006,95.77540248024
3572.7283,2.9051983529642795,114.8991009894899
3573.55,2.9032269336682965,84.43526114045486
3574.374,2.900301128443848,96.32055291587703
3575.1963,2.8975689298265768,104.720798146382
3576.0208,2.895666731191164,90.84796769134478
3576.8435,2.892964683776252,111.15451995262036
3577.6682,2.886169189725949,114.1238318199388
3578.4915,2.8730015714075905,107.1279486679818
3579.3145,2.854063433951622,94.2200431448068
3580.14,2.8324586336616546,98.81042684174577
3580.9636,2.8123313369659018,126.16659155426925
3581.7893,2.79704411403413,85.71346195590507
3582.6133,2.788694551007201,107.2367489531532
3583.4395,2.787171487728389,129.9058453461874
3584.264,2.7901154810084705,125.90746527157347
3585.0884,2.7943036964768404,90.33424515086804
3585.915,2.7982877428356345,117.17040910654754
3586.74,2.803490217508191,77.64727744326316
3587.5671,2.8122922586328998,142.58682559488878
3588.3923,2.824555697964256,90.42716277882828
3589.22,2.836561553406199,93.41148812533805
3590.0457,2.8429788150665343,110.46267846390646
3590.8716,2.8406950606685615,107.88073223982087
3591.6995,2.830716448715845,103.93689992670625
3592.526,2.81759562137464,118.4106590292904
3593.3542,2.8067031622239935,81.93380520067545
3594.181,2.801712647156291,102.62074131722318
3595.0098,2.802957080582261,120.57983341604965
3595.8367,2.8077535482938356,73.58550434330995
3596.6638,2.8122200578880827,96.79969370063671
3597.4934,2.8136817720144105,96.36044953883501
3598.3208,2.8120754207234113,116.66393047717004
3599.1506,2.809301637726577,100.8447299654514
3599.9788,2.8070158497887308,106.28524428502159
3600.8088,2.8046451856095334,151.45537365530092
3601.6372,2.79950485767736,89.94802011718063
3602.4678,2.7890817657353426,102.0163103226105
3603.2964,2.7740486168310143,116.82943746828302
3604.1252,2.7587711326217783,151.87657600602418
3604.9565,2.7486697645188967,128.46927251582036
3605.786,2.746294420448101,177.5205225892034
3606.6172,2.7494903870709257,103.78697846301085
3607.447,2.7534985506299656,134.99519403603026
3608.2788,2.7546330680304525,123.00245120433713
3609.109,2.7526753847729717,153.6971601553269
3609.9392,2.7507951578358605,73.68263925208042
3610.7717,2.7533686038823855,95.51278932031332
3611.6023,2.7629807148508267,102.65570017225241
3612.435,2.778475375007977,118.32702694349838
3613.266,2.7951127512520713,88.5334665489871
3614.0994,2.807303605512356,97.04913559246359
3614.9307,2.811184146975848,152.2572796680194
3615.7625,2.8061310009304483,108.2438652277868
3616.5962,2.793961957558696,103.42529866322307
3617.4282,2.77754723552044,120.1000239890343
3618.2625,2.7594872952375233,104.30478035034596
3619.0947,2.7424540367196553,109.48178439355151
3619.9292,2.7294487862405785,136.8856907698588
3620.762,2.7237802805907787,133.89703842065813
3621.595,2.7270493886396547,115.16749857226027
3622.4302,2.7374185655603833,103.89181373435399
3623.2634,2.749387330035245,152.7964122802136
3624.0989,2.756214412477771,117.66977655260919
3624.9326,2.7528665406315125,104.04167465362876
3625.7686,2.73821447235295,96.3453675508977
3626.6028,2.715343906203953,101.54849690916899
3627.437,2.689895474939399,130.32190257185627
3628.2734,2.6677460604536014,135.645001268932
3629.1082,2.6532300977230063,100.43617902577827
3629.945,2.6482386477354782,97.37663003072261
3630.78,2.653190111812953,117.44829331898649
3631.6174,2.667713171552038,148.796927649657
3632.453,2.6903072623768542,201.2108930266333
3633.2883,2.7176424068179936,127.36095788223365
3634.1262,2.744362610488623,119.96106638399412
3634.9622,2.764476880949383,112.78084550529634
3635.8005,2.774656270621804,106.95676571593933
3636.637,2.7756195156838945,97.3758268715261
3637.4756,2.7713087974038433,119.35095712000712
3638.3123,2.7657628835035553,134.54943317886475
3639.1492,2.7608303863605568,68.112835316981
3639.9885,2.756568058497025,144.11053654796453
3640.826,2.75314681417741,120.97928210279275
3641.6653,2.751658106989466,108.69249952164456
3642.5032,2.7531733898657906,115.52497791304476
3643.343,2.7573059192139944,93.8073207766166
3644.1812,2.7620221559802096,99.84631817095695
3645.0195,2.7648944194785106,99.3094349531799
3645.86,2.7644596676634694,102.97263515299517
3646.699,2.760736711026574,121.68080748391839
3647.5398,2.754626422204182,145.46347058709878
3648.379,2.747055027843616,107.90955984829736
3649.2202,2.7384907467355126,97.58207631548423
3650.0596,2.729363248609561,117.28960204153391
3650.8994,2.7203767859322516,125.42688459839393
3651.7412,2.712755835600668,104.88354045764473
3652.5813,2.707936722700843,116.11510103763763
3653.4236,2.706580739499252,106.66503614214962
3654.2642,2.7075744109738573,115.52612127242156
3655.1067,2.7076872989407264,116.97513310142264
3655.9475,2.702899968481332,116.88215827924292
3656.7886,2.6908625927130307,103.95054769899214
3657.6318,2.672726007953251,135.55854891524208
3658.4734,2.6532013834616084,150.24927859807363
3659.317,2.638197491896712,130.40825453184343
3660.1587,2.6323134835708726,109.50868868616033
3661.003,2.6364196476189132,146.70461894088712
3661.845,2.6470491019000937,155.7037285922392
3662.6875,2.657919465510616,139.12234709332273
3663.532,2.6632508168869986,112.57168855977557
3664.3748,2.6610896142887728,85.09166854927534
3665.2197,2.654165239792524,200.6130580825011
3666.063,2.647417971279014,120.42381899759003
3666.9084,2.644266470882523,109.79701760243907
3667.752,2.644945567375183,237.6968272320079
3668.5977,2.647624591706263,116.3400317505062
3669.4417,2.6507666220473047,131.224252031082
3670.286,2.654334509261326,101.12002788536252
3671.132,2.6591076858013594,88.027932966893
3671.9768,2.6653252326459627,114.01818361917941
3672.8235,2.6722401201209753,134.51804631149534
3673.6685,2.6785661921368495,111.06628556156636
3674.5156,2.6833422303443846,117.57390006363971
3675.3608,2.6860317921272494,115.99053765411664
3676.2063,2.686241849263741,128.86879897698122
3677.0542,2.6832131196224993,119.1265735861454
3677.9,2.6759056101447745,96.76702486630104
3678.748,2.6634868102974023,126.04491376674542
3679.5945,2.645956125903656,118.64980445301647
3680.4429,2.6238055379084346,130.85321440434572
3681.2896,2.5985428661045815,98.29059357897428
3682.1365,2.573926655425838,129.42353491696497
3682.9856,2.5572234508860787,103.83137544308299
3683.8328,2.5564320174860065,101.58981645910553
3684.6824,2.5736836983808677,120.62179007377748
3685.53,2.601431058809986,140.89265673065324
3686.38,2.6266512296704003,104.3755774487017
3687.2278,2.639140364566767,120.37449799992321
3688.0762,2.63748134574913,178.3345548344082
3688.9265,2.627158499599389,106.44088552694767
3689.7751,2.6151954647650015,114.20178599963624
3690.626,2.60577671274525,108.3276695380159
3691.475,2.599770003125436,111.01566265279982
3692.3264,2.596035359272973,128.9459417965834
3693.1758,2.5931119358248433,114.29627823315121
3694.0254,2.590127406720094,214.20546452682999
3694.8772,2.5872673839892517,129.72644568128598
3695.7273,2.585475114320846,135.98899386488154
3696.5793,2.585406134512005,110.31607393129732
3697.43,2.5867365464590195,137.05320691385415
3698.2825,2.5885891006512955,143.8424911915202
3699.1333,2.5905546771854353,119.71510858745737
3699.9841,2.593109134367333,116.05179571345676
3700.8374,2.5970956579919307,153.65156595188228
3701.6887,2.6030180621686525,165.64056397295488
3702.5425,2.6108402597407827,115.20741450383267
3703.3943,2.619841085352683,132.66062273380905
3704.2483,2.6288131185033823,115.58819884587616
3705.1003,2.6360234038035877,122.71133713457071
3705.9526,2.6395829943154645,122.30757859761302
3706.8074,2.6376874341578183,94.19165401535814
3707.66,2.6292339128100712,108.19974358100264
3708.515,2.61432264405346,102.98605005981372
3709.3682,2.5946067649102966,145.7334824985519
3710.2234,2.5727579451317357,117.6682465410111
3711.0771,2.552348174706302,111.46949264096942
3711.9307,2.5368966991112183,139.14156648575687
3712.7866,2.528594687053807,165.25868669008196
3713.6409,2.526570904928894,171.30679794821404
3714.4973,2.526421532582068,189.32478227271736
3715.3518,2.5227723667657767,175.2540037456016
3716.2085,2.5131350712241693,121.51430099500465
3717.0635,2.500040491764777,111.34010703546798
3717.9185,2.4892042396483274,225.18021188507697
3718.776,2.4855718763635672,165.78417900697687
3719.6313,2.4901548380221903,140.1507641860585
3720.489,2.499698960889988,174.5717005323769
3721.345,2.508921858794533,156.05210609124663
3722.2031,2.513650486296737,176.5095475324493
3723.0593,2.5125870662653274,133.313885282378
3723.9158,2.507376549506154,152.82074278028244
3724.7747,2.5009759049589375,204.33877261391868
3725.6316,2.4956974683604494,142.44948525927074
3726.4905,2.4918042087763355,116.16402868835802
3727.348,2.488028450319473,139.04729327191518
3728.2073,2.4832690027747018,122.10944221177121
3729.065,2.477912958857242,124.3300586128531
3729.9229,2.473064982750897,130.34502795455958
3730.783,2.468932424848116,136.65229711907602
3731.6414,2.4645813212633985,151.57913221429303
3732.5017,2.4595910465660533,138.74327666701538
3733.3604,2.4557633639651453,147.26368364103882
3734.2214,2.456250007183495,157.91636227716293
3735.0803,2.462602457826351,123.6893611158841
3735.9417,2.4724694937404297,177.26700630465322
3736.8013,2.480289601178043,127.67303902856322
3737.661,2.4808733379739176,131.62488281292488
3738.5227,2.472454357140941,235.02664309338633
3739.3828,2.4574348027305204,169.26906596318304
3740.245,2.440553314734976,164.23670266780385
3741.1055,2.4269652591026634,129.65605130607617
3741.9683,2.4204596984543145,158.3502187993344
3742.829,2.4225688167235497,147.80365901142056
3743.69,2.43157333339716,173.7504732201175
3744.5532,2.4429489175027626,132.1966854008994
3745.4148,2.451330287760521,173.12819738092347
3746.2786,2.4535190249862637,144.56966253401873
3747.1404,2.449777718347633,153.92410177292234
3748.0044,2.4427950909806153,115.08245094067593
3748.8667,2.4353269302045977,134.66982481757492
3749.729,2.4285897099667797,144.41205859840446
3750.5938,2.422749569243654,146.47167833164184
3751.4565,2.418392886974038,133.84627218537358
3752.3215,2.416965257068789,143.72453721882613
3753.1848,2.41975703789572,169.34077456976917
3754.0503,2.4263206742205305,111.96373631880631
3754.9138,2.434128961575619,157.91407019416187
3755.7776,2.4401102156108867,151.77766858542694
3756.6438,2.442406975425568,115.57245135757086
3757.508,2.440996474119992,189.48228494675854
3758.3745,2.436974454015457,126.22852517264677
3759.239,2.4315062846288162,144.11336636740978
3760.106,2.425161226900622,137.56983086801299
3760.971,2.4179990619297174,168.11106124371682
3761.8362,2.4099954937206065,127.1301743022776
3762.7036,2.401828536562926,126.76915205798521
3763.5693,2.395006290727156,205.26359219889562
3764.437,2.390711015787062,143.3415649876266
3765.3032,2.388736196983216,156.07598140656273
3766.1714,2.387428298186454,119.06908122769877
3767.0378,2.384883392762964,174.52461877221302
3767.9043,2.3800475109569836,115.46967360667486
3768.7732,2.373049458693879,171.72627958621229
3769.6401,2.3650099476509467,144.38836671711053
3770.5095,2.3574277084788045,183.06523196255804
3771.377,2.351867053693456,151.8536875726306
3772.2466,2.34951026992772,162.3952913039971
3773.1145,2.351000111255167,255.53340505568679
3773.9824,2.356023321937048,154.54788330031624
3774.8528,2.3630914668181555,191.3311757418491
3775.721,2.3698296893645363,138.89046640607117
3776.5918,2.374322555304404,180.6718519705525
3777.4604,2.3762078006805614,149.71155747503815
3778.3315,2.3768346776337768,146.91910839697647
3779.201,2.3780278868330047,163.47259117767794
3780.0703,2.380919455643927,133.25972449879566
3780.942,2.385738710379385,121.40044092509973
3781.8118,2.3920644672519336,172.95104803963463
3782.6838,2.398868958964338,133.74773007058386
3783.554,2.404315715210355,162.2135476129947
3784.4265,2.406556521608323,150.34834802840376
3785.297,2.4048146796490593,183.4409271974035
3786.168,2.3998300840495608,172.9806857816326
3787.041,2.3930328668612804,156.28867848222134
3787.912,2.3856553552860675,157.44820686607162
3788.7856,2.3783149016106653,152.55524729489326
3789.6572,2.3712760366032786,195.99958774654291
3790.531,2.364236655535427,161.7934281674078
3791.403,2.3562291241009636,175.7607064595646
3792.2754,2.3456397872769084,169.2419279672107
3793.15,2.33095082160435,138.75201269100492
3794.0225,2.3117898569854303,165.77558105534723
3794.8972,2.289206123243406,159.79764482660923
3795.7703,2.2659496388633795,172.57276153748265
3796.6455,2.2455197025108022,142.2679347066561
3797.519,2.2315742021001608,184.52251211875955
3798.3926,2.2264119027641653,158.03828111359056
3799.2686,2.230312782701843,176.5548004058416
3800.1426,2.241533786641434,188.39384929418964
3801.0188,2.2575185176905084,163.20514407351683
3801.8933,2.276001172068429,141.14285500964542
3802.77,2.295717915226878,170.42042560991388
3803.6448,2.3155590060627556,173.60134561066192
3804.522,2.3343163251391013,130.90151474505018
3805.3972,2.3504827771934265,174.9166022550875
3806.2727,2.363332850515466,197.1541976616825
3807.1504,2.37301036311665,167.1956278807213
3808.0261,2.3797893992345336,174.56122130452172
3808.9043,2.383332766891268,162.05666654139486
3809.7805,2.3826949386425023,151.91887334243705
3810.659,2.3776322439720134,188.82734735223272
3811.5356,2.3697644494120507,155.0681998717122
3812.4126,2.362323026181569,139.2573362254561
3813.2917,2.358600964152037,161.81872940209252
3814.169,2.3601637712641095,157.0192494325473
3815.0483,2.3660730527739493,133.81331820373106
3815.926,2.3735492305883485,148.54606004482432
3816.806,2.3794684283906617,152.80504654208784
3817.684,2.381490025114418,165.10170152010127
3818.5623,2.3787205425919424,132.05760872158038
3819.4429,2.3715770286647353,154.98762159614742
3820.3215,2.36147084632104,146.68091425636956
3821.2024,2.3500718437365573,154.84333977985278
3822.0815,2.3387975989328833,178.20969795001798
3822.963,2.328007548593454,158.85264275408394
3823.8423,2.3169750704890144,151.78210007717374
3824.722,2.3042185188425166,150.89165746333225
3825.604,2.2886411157255693,135.56255476762158
3826.4841,2.2704575436825998,156.9099204151334
3827.3665,2.250596062285075,189.20419973001748
3828.2468,2.2298170655547533,224.70526466143568
3829.1296,2.207378980158245,170.99980711021908
3830.0105,2.181681101716551,210.19737761117088
3830.8916,2.1511323645437974,167.09453200422024
3831.7751,2.115584892472971,170.1470316495598
3832.6565,2.077237963889849,194.9962536881984
3833.5403,2.039732964093166,213.9599425581943
3834.4224,2.008161377158961,241.6806406804267
3835.3064,1.9873682205599972,225.20137228999286
3836.1887,1.9810763038558072,237.10529162262634
3837.0713,1.9900369206572641,206.3550012942052
3837.956,2.0114981037722774,203.98398206174681
3838.839,2.039807833733143,253.17746152849796
3839.7244,2.0693871114593736,246.15168565951512
3840.6077,2.096978410655241,193.2620663747924
3841.4932,2.1228343063787745,256.96078569963885
3842.377,2.148462321839728,186.72357727511866
3843.261,2.1747585050746925,144.03851914129115
3844.1472,2.2011269915997946,183.63247681463167
3845.0315,2.226317595317172,190.91182015424923
3845.9182,2.250034057980903,150.10110227975323
3846.803,2.2724787719892148,186.80443388196215
3847.69,2.293957403936979,154.4593331105112
3848.5752,2.3138658704626067,147.29076730558552
3849.4604,2.331250954275401,158.56569662524876
3850.3481,2.3448285724759574,133.76297969825086
3851.234,2.351499013423401,139.4742497783239
3852.122,2.343198921926413,151.84246405078864
3853.0083,2.304201663804991,152.7847921314869
3853.8967,2.214623227695944,170.1323190927447
3854.7832,2.0662327462825534,171.76379849849334
3855.6702,1.881083724796631,137.11240179149675
3856.559,1.7175090976786451,135.9848887529511
3857.4463,1.6455082133298973,1.0428751996774783
3858.336,1.7004935314918248,138.10718461751094
3859.2234,1.8587452830969637,155.19849640215435
3860.1135,2.0562381295262613,156.898500391204
3861.0015,2.228634889549291,131.10051214185765
3861.8896,2.3447871056440026,151.67507149663555
3862.7803,2.4053566659796863,145.9743298691374
3863.6687,2.4268275792593546,150.9640280103645
3864.5598,2.4276619576040472,155.72871047855034
3865.4487,2.4212146877736975,137.48083660064225
3866.34,2.4148061340352607,152.9650807034196
3867.2297,2.4102378248173477,141.33789087056158
3868.1213,2.405068685783204,111.74927589879492
3869.0112,2.3954047591585055,115.9748497164485
3869.9014,2.3788576525039598,143.6160122428661
3870.7937,2.3559501760626618,152.5403825984094
3871.684,2.329495743988887,146.95354874834317
3872.577,2.3023775042742822,147.93880826440306
3873.4678,2.2767362320826345,166.30482244449396
3874.361,2.252922207286582,217.1093255081381
3875.2524,2.2298049879239064,133.79557502810923
3876.1438,2.204665163094448,167.99521113793094
3877.0376,2.174624840456132,146.3892328146652
3877.9297,2.1388101851944827,172.75216658580146
3878.8237,2.098872078505131,208.67781550296363
3879.716,2.0585099900586856,219.24075166954725
3880.6108,2.0203677046758233,179.65034331102916
3881.5037,1.9849315276120636,183.58806608223375
3882.3965,1.9500925381661725,292.69899942101205
3883.2917,1.9131284908968669,258.70237872774237
3884.185,1.8726468043969102,284.17134950538514
3885.0808,1.8284206559788556,280.90641267256177
3885.9746,1.7818214904564127,309.26721636594505
3886.8706,1.7348405438962515,268.8057005429499
3887.765,1.6914225918416441,261.81017501411736
3888.6592,1.6569077024503087,465.57110556796835
3889.556,1.6371009530921832,364.7938397143277
3890.4507,1.6360299861695657,303.34274945231493
3891.348,1.65412364936471,379.92852853625635
3892.243,1.68857136078274,355.3183755338429
3893.1406,1.735262332202091,372.21951245491107
3894.0361,1.7893369033198783,278.62945850812673
3894.932,1.8463307551094355,257.40277929993135
3895.83,1.9019376444642218,225.5551446281306
3896.7263,1.9521562905584262,265.2436265505905
3897.625,1.9950145846372385,209.67802333142583
3898.5215,2.0299766956859715,170.5451884512823
3899.4207,2.0585543471612184,164.57756974256725
3900.3176,2.082992365574393,157.5559907077785
3901.2148,2.1062831348521875,206.2399950159078
3902.1145,2.131246910048344,180.3342159246585
3903.0122,2.159528454946805,186.31930312980003
3903.912,2.191304836673773,177.34217270760197
3904.8103,2.224716498666197,200.48073206627677
3905.7107,2.25724372415956,181.66187079864326
3906.6094,2.286496599111806,160.07511841924511
3907.508,2.3119158370586357,131.6144030613398
3908.409,2.3350038527434354,136.7781112047153
3909.308,2.3583097250806633,201.52207495676643
3910.2097,2.383676013771246,154.29448230580022
3911.1091,2.4099430446391565,155.68590626460204
3912.011,2.4339582457475655,153.28546348502888
3912.9111,2.4529503367029037,152.7614509892527
3913.8113,2.467339020417611,150.73493987554468
3914.7136,2.47983901127182,147.73085031601306
3915.6143,2.492369110961649,140.75990666512214
3916.517,2.5042554462722006,123.46598503854018
3917.4182,2.5130615811278387,141.99448655297672
3918.3215,2.517406336670782,121.50234568035744
3919.223,2.518236452597842,156.435648227677
3920.1245,2.518072069639332,152.85355494499188
3921.0286,2.5192263756016344,162.26992789168733
3921.9307,2.522905055842179,127.4604780865157
3922.835,2.52940580953034,138.69919114525462
3923.7373,2.538288849628209,132.24663758615193
3924.642,2.5482253823473,149.03506410267363
3925.5452,2.5567478697223316,151.47411851889953
3926.448,2.56132070683153,128.4845671758059
3927.3535,2.5607055880012064,124.28197538227526
3928.257,2.5555774693334588,148.14834848182986
3929.1628,2.5476835482379183,127.79957972905305
3930.0667,2.538764215108011,137.87877424350933
3930.9731,2.5301277722290214,103.47646984702155
3931.8774,2.5230627633237646,154.9712128495474
3932.782,2.5183055596177475,124.24205061047259
3933.6887,2.515093940962969,153.9985729345587
