wavl,flux,ivar
3566.9744,5.524297195155042,21.04055153799942
3567.795,5.550124491670926,18.19031702594887
3568.6177,5.54143099836856,17.99203377996505
3569.4385,5.507142744991726,17.226429102014137
3570.2617,5.460508308806475,24.193700153741855
3571.083,5.414372269831078,17.778616976026502
3571.9065,5.375833673987869,23.10243506370975
3572.7283,5.345244523156108,23.729683674393478
3573.55,5.31818456524629,20.821242892495054
3574.374,5.291249554806473,22.75132389744948
3575.1963,5.2653784776828365,28.925042298369654
3576.0208,5.2432092811815165,30.242341340177912
3576.8435,5.2252282263064584,24.417598560781343
3577.6682,5.208289811814602,27.208121317551072
3578.4915,5.188951977891289,22.490131153821967
3579.3145,5.1664310271653,30.455171237211985
3580.14,5.142975221369434,29.454303101709854
3580.9636,5.122023489316688,26.912643594736483
3581.7893,5.105443395235148,28.256950880372035
3582.6133,5.0930743064361454,23.240368290018182
3583.4395,5.083956925899254,29.5501388533998
3584.264,5.079461291752362,25.879419223694228
3585.0884,5.084420351182493,29.0764121659558
3585.915,5.104692940916823,20.156028107468487
3586.74,5.141807814888788,24.143759514704556
3587.5671,5.190145654660392,30.795944851787326
3588.3923,5.23802111295997,20.54318387509614
3589.22,5.27384482880353,22.053805606946614
3590.0457,5.289877187755611,24.74442758278392
3590.8716,5.2839566138831495,26.029355184221522
3591.6995,5.257524023467266,25.18633481821975
3592.526,5.215224056408335,28.469438680110507
3593.3542,5.165097403446667,22.22926598209293
3594.181,5.118667104810602,26.70780343029582
3595.0098,5.08627741952017,29.986533241512046
3595.8367,5.072577771466245,31.57199366525316
3596.6638,5.073525206471628,21.584646201075707
3597.4934,5.079174933467892,31.76445722668887
3598.3208,5.07868153384282,20.75435804868844
3599.1506,5.065137772264596,24.24912564866206
3599.9788,5.0384290533000025,29.58425531456944
3600.8088,5.005213776363873,26.84127738220796
3601.6372,4.975982295918112,23.23596306950171
3602.4678,4.957997345138649,27.06715003917487
3603.2964,4.950463352124116,29.657579455532854
3604.1252,4.945831608714368,19.97271266723106
3604.9565,4.938131468259129,34.52846612506938
3605.786,4.929964615642873,33.75083192545529
3606.6172,4.931447781358672,24.53223123637569
3607.447,4.952796406146375,21.531058939142476
3608.2788,4.997045290168906,28.261864806078204
3609.109,5.0569319700994075,29.78326606674279
3609.9392,5.11796981607087,22.717692310412193
3610.7717,5.164373538190998,21.78158923880597
3611.6023,5.185867561873706,25.31735330402183
3612.435,5.182251399446641,18.66991191912911
3613.266,5.161025214154663,23.67041121579247
3614.0994,5.131848721399051,23.82737086481932
3614.9307,5.102298050188647,25.149770458731783
3615.7625,5.076131451733508,28.450089649882564
3616.5962,5.054414551573123,21.861441876505122
3617.4282,5.036756786600982,27.655921957616215
3618.2625,5.021824708034838,25.327741827370936
3619.0947,5.008162693350284,25.19267318616088
3619.9292,4.994352281109689,23.91411673961732
3620.762,4.979974438055301,30.26872312546797
3621.595,4.96576529816134,24.4284656842773
3622.4302,4.953128722866225,31.62950451369601
3623.2634,4.943086475265072,28.807016218702643
3624.0989,4.935593704201732,29.100897444439415
3624.9326,4.930083224259689,32.57115327229856
3625.7686,4.925410494276734,28.12563746018481
3626.6028,4.91941986469432,25.418095388125618
3627.437,4.908880200920573,26.052551340362193
3628.2734,4.891071085336737,28.533755721205452
3629.1082,4.866253543739962,26.23080543989048
3629.945,4.83822134736982,25.783298731965015
3630.78,4.812992725375595,36.79128056060494
3631.6174,4.794986057968709,33.06523097293211
3632.453,4.785047747662865,34.40151865738573
3633.2883,4.780454908123313,25.69343945553548
3634.1262,4.777820216224738,37.47565829898869
3634.9622,4.7756604559642435,24.765127037981724
3635.8005,4.774674075986054,29.474587031485136
3636.637,4.775801486216072,39.078329534777595
3637.4756,4.777985452123158,30.823113045522785
3638.3123,4.777703503006454,32.04464442096222
3639.1492,4.769859961044687,29.45297920209749
3639.9885,4.74724476856482,25.664796014422
3640.826,4.6983980327148664,33.452925817569685
3641.6653,4.607458249814191,27.48728906110726
3642.5032,4.465160519723757,31.596893677640878
3643.343,4.285042322598502,32.97149500842214
3644.1812,4.114834606027245,38.82435687639009
3645.0195,4.016425297604732,26.71792839772901
3645.86,4.029079843910582,34.115156739049276
3646.699,4.140847294023275,27.278417184988967
3647.5398,4.298790830535052,32.199838310814634
3648.379,4.444867533269229,30.5305025110372
3649.2202,4.548274920418693,32.727744362358536
3650.0596,4.606454824408979,30.48409215945513
3650.8994,4.632664095899897,25.30199791994089
3651.7412,4.640985367040865,27.49435545503663
3652.5813,4.640785653203309,29.276311906375234
3653.4236,4.636437732199393,28.061694650679247
3654.2642,4.629064175306364,27.241994899915543
3655.1067,4.618650121162987,40.528394387387685
3655.9475,4.605774878835898,34.202206776319194
3656.7886,4.592096903298567,33.88539667385125
3657.6318,4.580351369026254,32.98636182207813
3658.4734,4.573831503455746,31.3023460325398
3659.317,4.575029240029728,33.05041296242558
3660.1587,4.58438387943717,35.80334217787115
3661.003,4.599701148726992,36.37919223808157
3661.845,4.616521759685514,27.027741854026285
3662.6875,4.629928958299218,29.3909239351307
3663.532,4.63634271964488,28.098388357933747
3664.3748,4.635108263573454,33.94587028958439
3665.2197,4.6288548244820165,32.0795029598519
3666.063,4.622205187787781,39.590476372006044
3666.9084,4.61935697659253,31.217805322881674
3667.752,4.62194449897537,37.93612893226828
3668.5977,4.628257716872813,37.953267441490134
3669.4417,4.634475873705081,34.110898314775085
3670.286,4.637125006432776,32.96964015252956
3671.132,4.634826960131715,26.129638879666267
3671.9768,4.628642727584454,28.35332875264959
3672.8235,4.6210840570518155,30.538216234348337
3673.6685,4.614774631200521,28.48791451443011
3674.5156,4.611075419395529,28.743455043657125
3675.3608,4.609537424162864,28.5909417146454
3676.2063,4.6081587747348935,26.132249927162118
3677.0542,4.604638024765059,39.02767400510783
3677.9,4.59801133058923,35.66984712145308
3678.748,4.589833352518846,30.835425520618607
3679.5945,4.584306594945354,32.90354517959927
3680.4429,4.5861184828997335,39.14793502554658
3681.2896,4.597012352860064,27.186048907534836
3682.1365,4.613537641558067,35.994855590151346
3682.9856,4.628600776068207,31.826152344986237
3683.8328,4.635937461799054,38.259261823107856
3684.6824,4.634121696620766,37.166174657163104
3685.53,4.626077334440038,24.293257092290617
3686.38,4.615294108435225,31.582332928193452
3687.2278,4.602811309916634,33.26688312661803
3688.0762,4.587611792718563,37.71075747161377
3688.9265,4.56995096013029,27.314673254935336
3689.7751,4.553759902399297,32.86328152947111
3690.626,4.54529418344484,41.30689996103521
3691.475,4.549745508706868,35.71967876136859
3692.3264,4.567876267817238,33.76340004251723
3693.1758,4.59527771998857,23.9730678723674
3694.0254,4.624830632831512,23.241742802012485
3694.8772,4.649939238480573,32.713924316857664
3695.7273,4.66660602141176,29.04287263384708
3696.5793,4.6738448509457635,24.788380198097872
3697.43,4.672034040975774,30.557880925864062
3698.2825,4.662083812568091,28.76440099350832
3699.1333,4.645806441955145,27.237919364976648
3699.9841,4.626595587836428,31.336501112089618
3700.8374,4.609109063146269,34.553886686734046
3701.6887,4.597475054154738,44.46979505247695
3702.5425,4.59252612901543,29.433075962914433
3703.3943,4.590948693683997,28.6635924956164
3704.2483,4.586732782412127,31.639768404424295
3705.1003,4.574876846565783,31.20065754293795
3705.9526,4.554361594976068,37.29349649660489
3706.8074,4.528126085365933,30.051941663343534
3707.66,4.500606214649895,41.97100897631128
3708.515,4.474470540749154,31.127214565243527
3709.3682,4.450748985271713,31.690923827378235
3710.2234,4.429754322533979,35.25665067764615
3711.0771,4.412482356623379,37.43219042469842
3711.9307,4.399666753935512,46.99862449926246
3712.7866,4.390623493506857,31.466863358366755
3713.6409,4.383014094878394,33.66112476405219
3714.4973,4.373972080906189,36.05832594916153
3715.3518,4.362233734756086,27.691932831335386
3716.2085,4.34883430925049,40.81708639523016
3717.0635,4.336084328454955,35.690754160575274
3717.9185,4.325011580842907,40.17300556824786
3718.776,4.314269139924978,36.83804313521115
3719.6313,4.3013188517476,33.570930156173056
3720.489,4.284425507605044,36.36553166170899
3721.345,4.264409116074203,29.830579603525273
3722.2031,4.24440263454266,38.50657177036469
3723.0593,4.229059301567412,42.88795457983887
3723.9158,4.222291915066405,32.263246341530746
3724.7747,4.225490072985249,36.51610740674439
3725.6316,4.2364569071751355,30.7551262951031
3726.4905,4.250413829908738,41.68781599440453
3727.348,4.2621207556722345,41.71409980476874
3728.2073,4.268016059926194,40.21402412157436
3729.065,4.266589810216813,39.73302606742317
3729.9229,4.258020391052301,30.54328364441958
3730.783,4.243898206832751,46.79262478430851
3731.6414,4.227677464947299,35.934595578405336
3732.5017,4.213916655414277,40.22078025642036
3733.3604,4.206516537955808,41.678558742463856
3734.2214,4.206409335441611,32.28834734917721
3735.0803,4.211328817042618,36.27282151007698
3735.9417,4.217479039874089,36.26189921952752
3736.8013,4.221789026006758,33.845456623322725
3737.661,4.223344792593321,43.99549239422283
3738.5227,4.22295842627774,41.72833295291398
3739.3828,4.221533649459069,41.17033251002361
3740.245,4.218414357312183,35.60745429541966
3741.1055,4.211118473811526,38.02655823434207
3741.9683,4.1965547066461095,35.66369863218149
3742.829,4.173202279157702,45.067282926690915
3743.69,4.1423250243444905,41.82843248305769
3744.5532,4.10805316212024,32.05014836817677
3745.4148,4.076335904359536,41.157680561691855
3746.2786,4.052122951374869,47.01563662214708
3747.1404,4.038004358854832,58.18240206404606
3748.0044,4.033383837553786,33.89245696106027
3748.8667,4.035795189474103,40.77571893894534
3749.729,4.042127891773392,36.179200381565245
3750.5938,4.04958827400233,38.652820801131945
3751.4565,4.056207843744833,39.73113751141498
3752.3215,4.061663597176096,47.50987108858972
3753.1848,4.067360413188586,36.13290136395875
3754.0503,4.075314102182311,31.805298630265966
3754.9138,4.085595179909352,41.500033754219146
3755.7776,4.094945112599209,34.09637133691182
3756.6438,4.098246610517416,37.63913791962849
3757.508,4.0924001764962625,42.97126935919462
3758.3745,4.078946219143191,56.81005259200013
3759.239,4.062932895414983,42.482459895142874
3760.106,4.04921261620071,43.14385879993548
3760.971,4.0404484973341095,38.67505326496368
3761.8362,4.037116215931738,52.45123247932157
3762.7036,4.038816249510988,40.07482284128897
3763.5693,4.0445174531607515,39.28170706863064
3764.437,4.052089073009879,44.824049745815735
3765.3032,4.058063733127852,43.160266649056204
3766.1714,4.0587582022705515,38.29868884370912
3767.0378,4.052185110410053,40.81806156874517
3767.9043,4.039610563405113,45.97699002228453
3768.7732,4.024956887646287,49.89436496988144
3769.6401,4.012288516031305,39.49505313149653
3770.5095,4.0028267913750915,45.869009350424164
3771.377,3.9945712722483275,40.517546217352056
3772.2466,3.982382822836719,34.30741565103171
3773.1145,3.955216473597259,38.47910952059833
3773.9824,3.888446883730198,43.06497083149783
3774.8528,3.739329781070321,43.257868747425896
3775.721,3.4639784178857713,39.97513282415116
3776.5918,3.055293194451223,34.100292157022366
3777.4604,2.5933745511654656,44.05415526341686
3778.3315,2.2330950668434713,43.66006899887419
3779.201,2.1327513919798298,86.1559296266107
3780.0703,2.3435573370355973,46.44533918083299
3780.942,2.7803912128833974,41.83881261505468
3781.8118,3.2842905908310893,45.40007761751716
3782.6838,3.7315770953430887,40.72994210871091
3783.554,4.0718690894036556,34.28749794868922
3784.4265,4.308834596894911,50.910234802129054
3785.297,4.448123057341277,46.45501374020475
3786.168,4.489163337535587,22.733023545916055
3787.041,4.439881537920631,50.056177225590005
3787.912,4.331764229581646,44.35187826883419
3788.7856,4.208219221369153,50.19330432971762
3789.6572,4.103908980253025,39.84104655275631
3790.531,4.030906852194424,44.26442943828142
3791.403,3.9853828854242463,42.15954184938976
3792.2754,3.9573018703514724,48.00172460752043
3793.15,3.938129282436595,44.068136236695835
3794.0225,3.922375901730725,41.694252713458724
3794.8972,3.906644078809424,48.42163567849248
3795.7703,3.8893723467642975,42.76403369489123
3796.6455,3.870522093300483,49.38961010029469
3797.519,3.852098637084486,47.526264524509905
3798.3926,3.837649982311602,45.75089566748427
3799.2686,3.831244479247517,51.225780994547755
3800.1426,3.8356443883170823,39.711172844186954
3801.0188,3.8508329382089728,56.735359132284685
3801.8933,3.8738187394304573,40.73306509725597
3802.77,3.8997884409068186,54.66753628591844
3803.6448,3.9229243712804465,47.827519056792916
3804.522,3.9380568207265774,56.78758015740777
3805.3972,3.9417743546177735,42.766260465862004
3806.2727,3.934345795455393,38.92911691674834
3807.1504,3.9201731389312955,54.59479833917936
3808.0261,3.9063916194058432,38.56267376920858
3808.9043,3.898607980786739,52.44029427893857
3809.7805,3.8965493825902855,43.32966803786706
3810.659,3.891874178436742,42.37597787607702
3811.5356,3.8709266914410647,40.59336860995205
3812.4126,3.8219395973491306,38.81199479073816
3813.2917,3.7444551191666977,45.00756555269352
3814.169,3.656802099195068,50.92430834286043
3815.0483,3.590982936489604,46.37259521776167
3815.926,3.576850419090123,58.455482463022825
3816.806,3.621025571258138,47.58899272433284
3817.684,3.7014197277808867,43.96201002421337
3818.5623,3.7826936264595785,48.4704840216873
3819.4429,3.838238154414103,47.64008369254171
3820.3215,3.860614076642862,51.088988097309965
3821.2024,3.857711718260963,43.81449424292496
3822.0815,3.8412411874956733,49.7241024159992
3822.963,3.8195856425008916,49.27351047980988
3823.8423,3.7967051862727303,43.70357153663128
3824.722,3.7733741470195823,50.913154476303575
3825.604,3.7490427532454476,45.0177461008135
3826.4841,3.7233131422693577,55.203751689127365
3827.3665,3.6962903702277403,48.062662876860315
3828.2468,3.6689609935448173,67.56118486788112
3829.1296,3.6419363463006906,52.649518887146996
3830.0105,3.6156932022718276,52.80737588220134
3830.8916,3.590666939270901,52.087127507195994
3831.7751,3.567773296546288,61.310779318352836
3832.6565,3.5477283961059802,55.00408059491871
3833.5403,3.529715087443455,59.39824259386243
3834.4224,3.512388829104736,55.553859445357816
3835.3064,3.4952063726568956,59.89403071060714
3836.1887,3.479509826130958,56.05047448639
3837.0713,3.467457900402419,49.324998993240435
3837.956,3.4611908774574958,46.54221932869949
3838.839,3.4628046875401104,45.102146573140935
3839.7244,3.4743544238873367,61.48990833436434
3840.6077,3.496632765998498,57.083339105312355
3841.4932,3.527584620257543,62.333656107601556
3842.377,3.561665100982463,44.05224477822405
3843.261,3.5927514588124403,43.85196430895031
3844.1472,3.6174838640428626,59.99447021376271
3845.0315,3.6366558595899323,71.10351693793254
3845.9182,3.653867020536853,69.83211961210075
3846.803,3.672147891964345,51.49062289608168
3847.69,3.692828099817666,43.09591297361071
3848.5752,3.715473627331051,44.3423297331382
3849.4604,3.738784356129423,45.38826072334978
3850.3481,3.7607002682257757,39.81953388207452
3851.234,3.778678069573172,55.05743052715984
3852.122,3.791059795726843,43.08884204888428
3853.0083,3.797573356817768,41.515933023721864
3853.8967,3.7996653622965555,51.88814654193068
3854.7832,3.799915843729986,48.93373683760973
3855.6702,3.8014050336594285,48.20439192297748
3856.559,3.8066164990436433,54.057769069951284
3857.4463,3.8160349865321113,53.27241589267811
3858.336,3.827676886871907,42.45049765316607
3859.2234,3.838140640374774,41.45328169839473
3860.1135,3.845072195198821,46.87511732319921
3861.0015,3.8481227552812163,46.648463869810854
3861.8896,3.8480934248686274,40.562573882436766
3862.7803,3.8451535153605056,43.02581577456234
3863.6687,3.8386366811638433,46.9747555727936
3864.5598,3.8281352107218765,46.65452227135187
3865.4487,3.8144829217094762,47.51101103684958
3866.34,3.799001118173185,44.41615492155147
3867.2297,3.782611972299621,56.210413727588666
3868.1213,3.764962123306491,50.75101990758912
3869.0112,3.7449902807886017,44.73793916451865
3869.9014,3.7215644879986085,54.00489488591479
3870.7937,3.6945691963949923,58.61908862751831
3871.684,3.665654615279716,51.69853619945843
3872.577,3.6374064543185485,47.40530940382946
3873.4678,3.6127110090360954,52.82545710193505
3874.361,3.592902661394791,49.91796454154204
3875.2524,3.577446453123258,60.05257217117876
3876.1438,3.5637301282223595,57.12880473708715
3877.0376,3.5482999180969177,67.90585146353062
3877.9297,3.5283775080817907,57.152472470449624
3878.8237,3.502391550044365,65.65313554736379
3879.716,3.4700838190217684,47.39779624325608
3880.6108,3.43136971195686,59.27020067426441
3881.5037,3.3866368144284995,57.077249854495236
3882.3965,3.336342906164398,61.92844634375973
3883.2917,3.2815331556049565,60.927559554496064
3884.185,3.224446364660839,63.574183933707694
3885.0808,3.167215904964684,63.090944228678154
3885.9746,3.1123128945134053,62.10124561405944
3886.8706,3.061148519793952,75.02258232827812
3887.765,3.0156985748058713,65.23481500901528
3888.6592,2.9787066689444317,80.22740943910784
3889.556,2.95398563375572,79.22784506313526
3890.4507,2.9447347628833995,82.8797960423181
3891.348,2.9510274063952626,67.6595880539263
3892.243,2.9696445265041094,77.14075132137076
3893.1406,2.996169941949394,72.94595505453054
3894.0361,3.0271721130842906,87.20262466951993
3894.932,3.0617055653901994,56.4779384984265
3895.83,3.1002580282077448,76.76363953220338
3896.7263,3.142568095863798,63.01279152245242
3897.625,3.1868469976656284,84.37542144576791
3898.5215,3.2292091192992003,73.7715539490974
3899.4207,3.2667890041511076,54.70624963762023
3900.3176,3.299406977277129,77.09703475885998
3901.2148,3.330525167448067,83.50696814572017
3902.1145,3.3641711497168796,56.38601516166094
3903.0122,3.4013878050240245,59.32151335429163
3903.912,3.439901415701616,56.220191649798615
3904.8103,3.4756678596416752,54.69737820000407
3905.7107,3.5068373740239625,52.301048443239864
3906.6094,3.5349074157980724,55.4294619506775
3907.508,3.5641168502746754,55.5317540068788
3908.409,3.5982781399861197,47.8677178414932
3909.308,3.637954768877564,46.7440376391947
3910.2097,3.6807503745448615,49.981733406973525
3911.1091,3.7224403111411672,49.70900517349287
3912.011,3.759867865071418,47.45063555067836
3912.9111,3.7908448819830602,54.65337790069148
3913.8113,3.814377678416856,51.51665619501348
3914.7136,3.8301934657496592,51.12509329202302
3915.6143,3.8393690871359714,40.51323227929231
3916.517,3.8451677977900003,44.63125642700831
3917.4182,3.8519801734082217,50.87427795581123
3918.3215,3.8630643230181674,87.4091103119527
3919.223,3.8783246690393915,43.49878069658969
3920.1245,3.8948017481891832,46.41552124247815
3921.0286,3.909186183937735,40.140696285727415
3921.9307,3.9202243154964735,42.71410945790923
3922.835,3.929373030797232,51.25256611414445
3923.7373,3.9389640728732394,50.74804964973063
3924.642,3.950302218269805,44.975374440385345
3925.5452,3.9623914056142286,45.54373194885913
3926.448,3.9727158036845998,39.0645946456294
3927.3535,3.9790065709649833,38.74145391511312
3928.257,3.980784153125005,47.417484709348194
3929.1628,3.979498650298706,45.121888021047326
3930.0667,3.977108675827495,39.44186203889373
3930.9731,3.9746992438334607,44.26119371463284
3931.8774,3.9721488688374227,50.95837643487023
3932.782,3.9684654612107555,45.44510306261431
3933.6887,3.9621265783345057,39.676919112883894
3934.5938,3.951227437669709,50.67130102250915
3935.501,3.9337722518549363,46.9066676206804
3936.4062,3.9089839753937508,35.80346552726082
3937.3142,3.878064476835943,49.145545930259395
3938.22,3.844633033537465,44.9004269192497
3939.128,3.8126420743617455,42.91970084744339
