wavl,flux,ivar
3566.9744,3.6433237990336593,30.06446724785071
3567.795,3.642567876735694,32.00724763690216
3568.6177,3.641091934379317,23.016069480820533
3569.4385,3.636433267838293,34.03571988045357
3570.2617,3.6246252084516004,29.118063709862227
3571.083,3.603591513993518,25.153655333509956
3571.9065,3.5752325052547334,28.10336221686978
3572.7283,3.5454193578682505,32.96965721347435
3573.55,3.520533551076269,33.16058786100913
3574.374,3.5044259866196383,30.669809420298638
3575.1963,3.4974780817817916,35.024207079997666
3576.0208,3.4975841035744053,27.19905950501002
3576.8435,3.501984869535783,29.404339336212278
3577.6682,3.5080963052413168,33.25979679274835
3578.4915,3.5136015882055203,30.437730926841066
3579.3145,3.516519542224719,32.77043517346138
3580.14,3.5153567233131064,30.842371999702458
3580.9636,3.509694030954813,33.32110607553813
3581.7893,3.500789887339903,34.16774458191796
3582.6133,3.4915940485383268,29.67314015108612
3583.4395,3.4854002805737982,33.98496580732858
3584.264,3.484336362238836,36.68943181501792
3585.0884,3.4883916048450363,33.22861694747485
3585.915,3.495787411068836,32.99501078795356
3586.74,3.503712029103485,34.212579121870654
3587.5671,3.509423307856385,31.671731811655288
3588.3923,3.511249728293152,34.573278774728514
3589.22,3.5095395686992727,32.6892554616178
3590.0457,3.5064093396692195,38.393446530982004
3590.8716,3.504292057088922,30.35416052043683
3591.6995,3.504216246574174,34.33064604817134
3592.526,3.504977002976117,28.466779683510833
3593.3542,3.503798374743195,36.0318625538185
3594.181,3.4981128971564845,36.72032979495735
3595.0098,3.487136118210739,33.82293348332037
3595.8367,3.4721747567949754,34.55543928246374
3596.6638,3.4550813217391427,33.18681310696418
3597.4934,3.4367315817038144,37.27384612601743
3598.3208,3.4168453368566314,36.220413209193204
3599.1506,3.394577817471431,33.31993324614276
3599.9788,3.3703389656588882,38.229200049886956
3600.8088,3.3463477599889737,30.895388224684165
3601.6372,3.327104930409505,31.9629522937782
3602.4678,3.317662729339916,41.745307818826724
3603.2964,3.3214118227652727,46.78575946032546
3604.1252,3.3377888617233853,38.2044057792753
3604.9565,3.3625024180467196,33.04266314663895
3605.786,3.389268483033592,39.38153305642681
3606.6172,3.412686540054901,36.57794884563876
3607.447,3.4291382204016867,39.624116945263545
3608.2788,3.437398429390561,33.581198839054466
3609.109,3.4380712556892274,36.53593921425542
3609.9392,3.4331249772872434,28.36405529458352
3610.7717,3.42496496556481,28.29614437454064
3611.6023,3.415827819965434,38.36362547746864
3612.435,3.407233374375966,31.42433074995296
3613.266,3.400114279517784,34.88167499190188
3614.0994,3.395150222847526,34.29036188875715
3614.9307,3.3939750198970136,33.5747737377443
3615.7625,3.399982367923491,40.39879253148155
3616.5962,3.4175701375701006,40.53600850851348
3617.4282,3.448409081999686,33.673544090382485
3618.2625,3.4872255841851385,38.21418239724346
3619.0947,3.5200585365082633,31.936802080302343
3619.9292,3.5305981337250376,30.114161035484383
3620.762,3.5100249469815648,43.470590584574694
3621.595,3.463793397317816,35.68771880478172
3622.4302,3.4076591878254505,34.61411970846805
3623.2634,3.357815164456576,40.00289425249919
3624.0989,3.322094926991993,36.621637620742966
3624.9326,3.300905984658691,38.06755909426779
3625.7686,3.2911252907328685,35.31789483150997
3626.6028,3.2896380751638774,34.794830682509755
3627.437,3.292914313307167,41.077224626085865
3628.2734,3.2962710555590697,40.79300374716437
3629.1082,3.294980657809956,38.48965531457932
3629.945,3.287082223633534,39.53993458730632
3630.78,3.275136634414381,38.826120959273844
3631.6174,3.2648011679972293,43.91912920586658
3632.453,3.2614804741066283,43.62363266834765
3633.2883,3.266989006905463,38.380724118940854
3634.1262,3.2791530462464005,42.45859124760262
3634.9622,3.2936307140040904,41.652247563183046
3635.8005,3.3069135107575476,36.084689875633664
3636.637,3.317657531933642,30.127482112112848
3637.4756,3.326538694615532,39.25846329360918
3638.3123,3.3341686213763295,36.61368131767189
3639.1492,3.3394492843846235,37.98250174885002
3639.9885,3.3393739058910787,50.319132512960365
3640.826,3.3312307152788647,33.43362275173492
3641.6653,3.315390201814166,31.549767474099607
3642.5032,3.2960680271761804,42.41050846720529
3643.343,3.278505267060072,38.314815471247584
3644.1812,3.2658013933261185,35.33479577515276
3645.0195,3.257755720762749,38.00460711961104
3645.86,3.253029043513319,35.17616015618278
3646.699,3.251242873885314,35.06371607648933
3647.5398,3.252832396376962,34.841463038533504
3648.379,3.2574589189225676,38.41735706223234
3649.2202,3.2632180900102927,35.5934996413721
3650.0596,3.2676442899208213,37.68141082520741
3650.8994,3.2695467872730437,35.52092550299375
3651.7412,3.26941527607156,34.56761738163798
3652.5813,3.268251030649931,45.820025011844606
3653.4236,3.2662094203162493,32.719201337471574
3654.2642,3.2626068256498066,41.25941708553101
3655.1067,3.256869352508861,39.09538158503393
3655.9475,3.2491556494197122,42.978658239621836
3656.7886,3.239867452527905,39.25254479932609
3657.6318,3.2291456661739604,45.24983718597322
3658.4734,3.217114852349455,40.079828915096066
3659.317,3.204262735058366,35.98564721183759
3660.1587,3.1919018588669554,43.01876908056966
3661.003,3.1817542845764932,43.71515453030805
3661.845,3.1757927542582225,45.59076287438269
3662.6875,3.1755329202843305,39.39852472856457
3663.532,3.1814184221075634,42.19705301774012
3664.3748,3.191964942674135,41.70995501421118
3665.2197,3.203742220579537,46.02299376434732
3666.063,3.2121026721885184,32.0939396514474
3666.9084,3.213146350936263,39.311291214773114
3667.752,3.2055920493639327,42.72663802968138
3668.5977,3.1917658761302525,46.41036266409423
3669.4417,3.176749676798394,44.10389297517355
3670.286,3.1655842148498143,38.0295181880175
3671.132,3.160811438624511,38.12419201336097
3671.9768,3.161694896866924,45.6837343275566
3672.8235,3.1656295514235055,43.7629224987485
3673.6685,3.170426663030473,38.66245677743329
3674.5156,3.1753984066767846,45.49621743602438
3675.3608,3.180399332626028,39.70000237580585
3676.2063,3.184593731421937,35.505191137337974
3677.0542,3.1864697370609263,33.24054538490427
3677.9,3.1852122274810473,47.000039481321814
3678.748,3.1816717836315567,53.12194395632346
3679.5945,3.177759624249919,36.77128508037988
3680.4429,3.174954582919987,42.48179343349452
3681.2896,3.1735992294820563,40.52019888021579
3682.1365,3.1732694058806072,37.754267317684814
3682.9856,3.173493245986551,34.679268367449566
3683.8328,3.173681474822952,40.414054173191886
3684.6824,3.1724468836561934,43.89216309681978
3685.53,3.167479837772767,37.60298467703956
3686.38,3.1567029677028673,43.45445550255723
3687.2278,3.140229357109821,41.98158119029741
3688.0762,3.1210879482948517,32.31085983737887
3688.9265,3.1044509334734918,48.217423022339766
3689.7751,3.095695017459518,44.12480620994463
3690.626,3.0980879927333005,45.379467826201456
3691.475,3.111438800462571,39.446722907885494
3692.3264,3.131798983662941,33.864750833961146
3693.1758,3.1524995983187467,36.47820814956994
3694.0254,3.167105507619811,41.83688256531816
3694.8772,3.171984605589451,40.1797638655779
3695.7273,3.1676785751869154,35.90022326381678
3696.5793,3.158154489378051,39.56412873148792
3697.43,3.148388115430835,36.800440562394535
3698.2825,3.1414953544191855,43.1704419316039
3699.1333,3.137452263495408,40.38055525012464
3699.9841,3.1340445340440484,37.330548022938615
3700.8374,3.1296749549584844,39.74217344790784
3701.6887,3.125282137099038,39.83417916843061
3702.5425,3.1233288912571413,36.98503403380663
3703.3943,3.1250665686137116,42.49687172264479
3704.2483,3.1287024506630603,49.31492449474934
3705.1003,3.130116278323619,41.79802472763816
3705.9526,3.12526071613369,42.117168069210386
3706.8074,3.1124073030722745,40.12189493253719
3707.66,3.0935830932271613,38.238459882859985
3708.515,3.0737051637856587,39.64795786087029
3709.3682,3.0582278424489395,39.79090761482287
3710.2234,3.0494818513566484,36.82898637769686
3711.0771,3.045674255352726,40.63787843666671
3711.9307,3.0427835042410343,38.54671511165067
3712.7866,3.038156846504361,45.833996754923255
3713.6409,3.03240203226929,45.39476134267012
3714.4973,3.0280437164421317,45.561998268113946
3715.3518,3.0266792051450953,47.57310640105695
3716.2085,3.0271713468440433,41.93348836116159
3717.0635,3.026565063748194,45.68068615962427
3717.9185,3.0224534870262674,49.621284188046076
3718.776,3.0146138933058353,47.03877108887935
3719.6313,3.0050786966046275,47.73819393522926
3720.489,2.9968447988018645,40.091568709065065
3721.345,2.9926659639818283,46.4114374286673
3722.2031,2.993819755565237,45.63755636981459
3723.0593,2.9996082817125456,44.37960021920554
3723.9158,3.0076684806705702,44.78013808557564
3724.7747,3.015084305786648,44.82641116038234
3725.6316,3.0195975682707927,39.919004843314724
3726.4905,3.0205245372347,47.46774709103416
3727.348,3.018621300989632,55.97283767927635
3728.2073,3.015315790315187,40.76247509275372
3729.065,3.0117333737465275,46.350158839865955
3729.9229,3.0081169966965393,42.484148369655856
3730.783,3.0040171248677474,43.0324895175905
3731.6414,2.9989620930694887,46.34187995233162
3732.5017,2.9930369426292533,50.36832698070178
3733.3604,2.987172124650344,48.52865516725423
3734.2214,2.9825928100756554,59.933031833161195
3735.0803,2.9800659107505076,45.894508967694506
3735.9417,2.9791878704324013,47.202098298776264
3736.8013,2.9785027031157907,42.342865467366295
3737.661,2.976155826545313,56.77763459369672
3738.5227,2.970789845516618,42.43848452091877
3739.3828,2.9622942320670593,40.29300045592511
3740.245,2.951811896540386,40.388683572833514
3741.1055,2.9411728674831656,52.18760187205277
3741.9683,2.9315240632113357,51.87115533963665
3742.829,2.922812711328941,44.77551244625283
3743.69,2.914049677171061,45.35838797389728
3744.5532,2.9045602875069,52.1175764538119
3745.4148,2.894908075754562,41.827770423136194
3746.2786,2.8866616413047566,53.18804548000533
3747.1404,2.8818381857316098,54.001091579165156
3748.0044,2.881941588293277,47.129305699484775
3748.8667,2.8873676581922765,48.15684077693236
3749.729,2.8969375016065237,54.79167902395376
3750.5938,2.9078886063198572,55.139681091883965
3751.4565,2.916355153968327,48.40698643303802
3752.3215,2.9189063946294507,46.02913264707604
3753.1848,2.913963052328517,45.40915338109661
3754.0503,2.902569933385525,44.59239368407954
3754.9138,2.8879481362789394,54.06011560692873
3755.7776,2.874103185058785,46.65237142366445
3756.6438,2.864743032537527,53.464189087395305
3757.508,2.86233705856283,54.34170076033339
3758.3745,2.867110038341397,51.90946464218886
3759.239,2.8769043887957646,56.08878747930685
3760.106,2.8882603475057764,50.54670103802478
3760.971,2.897835040219463,48.43722938002454
3761.8362,2.903590998012275,52.51055397343969
3762.7036,2.9048129107250884,52.16605814896857
3763.5693,2.9019762209154245,46.42049139030039
3764.437,2.8964362204999645,50.541023507524486
3765.3032,2.8896528524256007,55.425040687375365
3766.1714,2.8821304247626065,49.828036857674746
3767.0378,2.8734144680429687,52.18253185277523
3767.9043,2.86313541319809,48.465093365401806
3768.7732,2.85232963707311,53.15505854258892
3769.6401,2.8435484759912146,51.391659626547074
3770.5095,2.839215863631055,59.75288052280087
3771.377,2.840085887669895,56.09781495418895
3772.2466,2.8446212309009864,51.43152394020599
3773.1145,2.8498764322361314,48.85285991669712
3773.9824,2.852960412748034,45.66898720279246
3774.8528,2.852013682081416,52.13407572643863
3775.721,2.8467104648513084,63.42273156439363
3776.5918,2.8384335588539416,54.54715888663313
3777.4604,2.8301936359112334,54.91107092693062
3778.3315,2.825393131146965,56.07297241784083
3779.201,2.826096420808854,43.46553407737025
3780.0703,2.8314499415251255,46.529869382532205
3780.942,2.837966924310553,53.60931385573304
3781.8118,2.8414443800040776,63.40278611284098
3782.6838,2.8395633917152625,45.0817545520927
3783.554,2.833087259777943,48.735015691932034
3784.4265,2.824881607541114,58.1479917019533
3785.297,2.817706935541874,54.23096717042206
3786.168,2.8123602324129022,53.15397723575316
3787.041,2.807921655075925,51.53902522415808
3787.912,2.803329984401818,52.23329381812809
3788.7856,2.7985389664464577,54.11300908993625
3789.6572,2.7943280778777497,60.85553452351589
3790.531,2.7909248580979202,54.047751649833046
3791.403,2.787360913225131,53.89791281062099
3792.2754,2.7821111285989706,50.51571201594583
3793.15,2.7744178497016074,55.06520274678114
3794.0225,2.764884961742671,54.973755289813674
3794.8972,2.754713858781996,52.199485050054584
3795.7703,2.7449714320756105,59.875839638796336
3796.6455,2.736153313683453,51.18304055471651
3797.519,2.7286698042910125,49.509648136861614
3798.3926,2.7228965685172843,60.24165202018868
3799.2686,2.718944036731143,58.7026609922157
3800.1426,2.7163370496717696,61.97281958784518
3801.0188,2.7142571804033273,68.49781194848424
3801.8933,2.712506150770467,58.167988989722
3802.77,2.7120622088172373,58.60821615015003
3803.6448,2.714573256066176,51.8981854947688
3804.522,2.7209115372560118,61.57056305425756
3805.3972,2.729895521746023,52.85217446517495
3806.2727,2.7385516883355487,47.1121046105013
3807.1504,2.743618127592743,60.042483346050545
3808.0261,2.743228666421088,63.40566460455517
3808.9043,2.737616758164964,54.534238081079174
3809.7805,2.728629123001367,57.72527271291983
3810.659,2.718751723198411,64.80054555354744
3811.5356,2.7104634098652647,54.32199888390323
3812.4126,2.705365679433149,50.87580902719351
3813.2917,2.703657051035903,60.71180998707781
3814.169,2.70404511468472,56.78548202244891
3815.0483,2.704555169507302,59.440886352879104
3815.926,2.7038085468944146,68.00467021466632
3816.806,2.7016628380911354,66.80622282698342
3817.684,2.6987696643016927,58.311750689362256
3818.5623,2.6957469951701154,59.40253193501317
3819.4429,2.6930052059968776,60.49558125728787
3820.3215,2.691061301098418,62.154681518893085
3821.2024,2.6904069221249522,60.05093227097471
3822.0815,2.690961367842071,62.647554346108116
3822.963,2.69176411385739,56.539220261914934
3823.8423,2.6914074326676256,59.19198381432514
3824.722,2.6887620964399424,56.04331180778601
3825.604,2.6833703476495407,60.022851143084175
3826.4841,2.6755829959476696,56.77961014885414
3827.3665,2.666341479311427,63.54168120290018
3828.2468,2.657002962963355,65.68676911613774
3829.1296,2.6486764567782997,60.08109523914286
3830.0105,2.6419410204868985,66.53623902004736
3830.8916,2.636567100590452,57.127143955568144
3831.7751,2.631818129413995,56.40578344353468
3832.6565,2.6269454107773016,64.21324953163463
3833.5403,2.6216793585752605,55.07468790781995
3834.4224,2.6166759294673727,66.1478074995624
3835.3064,2.6130458006076953,77.59358307169042
3836.1887,2.611351752926707,84.01644898209135
3837.0713,2.610723363728618,62.476398307624834
3837.956,2.6093500286754967,71.41924817812942
3838.839,2.606058311843074,59.464804327069565
3839.7244,2.6014880974325227,58.83566376435729
3840.6077,2.5976755998500933,70.41032367085505
3841.4932,2.596156359354407,61.350429349598635
3842.377,2.5965187150917735,63.40701389486242
3843.261,2.596599352924703,68.04702664763288
3844.1472,2.594329922971412,70.93628403012633
3845.0315,2.5897685167835043,71.20906824327743
3845.9182,2.5856270586405685,73.14214463747716
3846.803,2.585795385897705,64.25094946551958
3847.69,2.592558194215183,72.29124965398991
3848.5752,2.6046142718219834,58.86587926226552
3849.4604,2.6174772736802514,67.98931220214959
3850.3481,2.625828894977662,54.71273460405125
3851.234,2.6262616695454084,59.61034507965637
3852.122,2.6189327333581947,65.5082396155072
3853.0083,2.607000874122055,61.474942568643996
3853.8967,2.5943844013895303,79.79584004552949
3854.7832,2.5838459714056223,62.11584429267686
3855.6702,2.576245639655288,64.93463590579509
3856.559,2.571658616954816,65.70313773173656
3857.4463,2.5704700681315176,68.0392511942744
3858.336,2.573273043672435,70.92638237916404
3859.2234,2.579804794828969,67.36773797982733
3860.1135,2.5881958669445853,65.01202190177533
3861.0015,2.595265067131644,65.22739929867609
3861.8896,2.598102234807065,67.21782790432063
3862.7803,2.595352642186747,55.14234296294933
3863.6687,2.5878188055402376,77.00473512369753
3864.5598,2.57802227484,62.99315935244179
3865.4487,2.569381683337953,58.52654464163953
3866.34,2.5645874375988167,74.74900622807797
3867.2297,2.564140760857856,58.280162054087626
3868.1213,2.5656219198877404,61.50546089783409
3869.0112,2.56502123756007,60.51829856206526
3869.9014,2.5592394745275655,53.69980852897919
3870.7937,2.547721479413706,67.13342192643306
3871.684,2.532373848089526,67.10691702391671
3872.577,2.5160278707433186,69.67909140738743
3873.4678,2.5015892257329533,74.0380495026342
3874.361,2.491234048517169,78.05227295671058
3875.2524,2.486280890125782,70.83399835211662
3876.1438,2.4864196013521327,58.26081712545681
3877.0376,2.489451264381282,74.53782653236567
3877.9297,2.491739859212161,85.40159369458735
3878.8237,2.4898622113501925,70.0181184641266
3879.716,2.4823564605286053,66.30591339515881
3880.6108,2.470193749270939,71.171286284319
3881.5037,2.4558513431717492,81.76786806886349
3882.3965,2.441569693591003,69.81747959834735
3883.2917,2.428618011752267,78.78120551106892
3884.185,2.4175286920812527,78.10323251842813
3885.0808,2.4082849271532702,79.33247131546085
3885.9746,2.400745937544575,70.46266099565727
3886.8706,2.39446412802431,75.67010215805239
3887.765,2.388736667100455,92.4831739254058
3888.6592,2.382512406514162,68.33297968673547
3889.556,2.374881849677399,71.91516316108043
3890.4507,2.366087871006661,84.84769083883296
3891.348,2.3580764941309833,76.10644252179269
3892.243,2.35406442459579,84.61225581949991
3893.1406,2.3565337069291883,77.62010413221635
3894.0361,2.365468668185695,78.6102454089026
3894.932,2.3781940680257114,83.17839198330798
3895.83,2.391027400914552,69.43481559913475
3896.7263,2.4012138832561716,75.76541915050761
3897.625,2.4081551406614534,93.96864439362764
3898.5215,2.412931017649503,72.27277404888106
3899.4207,2.417570114905847,80.84793303753541
3900.3176,2.423992780941756,72.16046472176116
3901.2148,2.433279760698984,84.88120568688909
3902.1145,2.4452449580493734,66.89770886417563
3903.0122,2.458600829395591,70.09863518214188
3903.912,2.4717692778600826,74.01521152251665
3904.8103,2.4830259851385335,76.74268968420219
3905.7107,2.491066709699719,71.70317330525359
3906.6094,2.495652974191813,75.78171644226222
3907.508,2.49849145606679,73.84124736805374
3908.409,2.502542876326315,82.75458151345553
3909.308,2.5099762095046643,74.82523276003965
3910.2097,2.520603615671937,64.80338049287127
3911.1091,2.5321228234872937,67.03172883924677
3912.011,2.542222147739289,70.35972973644793
3912.9111,2.5498253884035447,67.06609683176079
3913.8113,2.555091205652208,71.86433302317523
3914.7136,2.5582440846756884,72.69181506424133
3915.6143,2.559030822521507,67.68085702692058
3916.517,2.5572796510865348,63.26030767397447
3917.4182,2.553680193428583,73.72032944572537
3918.3215,2.5497301472925704,72.04618344768076
3919.223,2.546756365290267,84.66182629936371
3920.1245,2.5447965876219962,71.58623474652397
3921.0286,2.542640980135931,72.75225006918083
3921.9307,2.538975348862803,65.19232800523768
3922.835,2.533558625027467,73.2324886354535
3923.7373,2.5275798832192335,69.12223759104143
3924.642,2.522823305838219,68.31846827219844
3925.5452,2.5206068414722385,73.82075378218322
3926.448,2.520821991483412,72.03968588284374
3927.3535,2.521893351907519,69.88781115270307
3928.257,2.5216075065099917,69.50471999482558
3929.1628,2.51852208177335,68.54196598363048
3930.0667,2.5129859437687685,71.45918669049563
3930.9731,2.506927873369452,71.59431392323705
3931.8774,2.5027992680506945,72.28717823999408
3932.782,2.502193170639801,66.32046337744241
3933.6887,2.50522072693959,67.83773382796036
3934.5938,2.510386831822403,72.576342028683
3935.501,2.5151138538968536,66.13975864319355
3936.4062,2.516661279208514,70.1927352763971
3937.3142,2.5133595996891063,64.8600072150326
3938.22,2.505274110358855,74.5394937526698
3939.128,2.493845466938673,71.5754002512212
