wavl,flux,ivar
3566.9744,53.52163421241272,2.332513258105374
3567.795,53.39993629861116,2.306195791101779
3568.6177,53.2102788245688,2.2317715519386803
3569.4385,53.00344191424782,2.270219976536499
3570.2617,52.82333532955301,2.6289671510794697
3571.083,52.69481406439364,2.3234772972864937
3571.9065,52.617766429012356,2.4262348100203477
3572.7283,52.57691038854819,2.4824648375089744
3573.55,52.55041860052863,2.4694716354334596
3574.374,52.52040730900991,2.347580407382803
3575.1963,52.47980386949933,2.504482599588634
3576.0208,52.431578546472934,2.437838778696085
3576.8435,52.381212905004155,2.4273361115990237
3577.6682,52.325981351287005,2.4254427769016
3578.4915,52.25373983043602,2.458300720348915
3579.3145,52.150358344710575,2.3617773899625547
3580.14,52.01131448525897,2.5636830674252606
3580.9636,51.84987350674615,2.490890375711724
3581.7893,51.69240052136305,2.6169875294446965
3582.6133,51.57121507152499,2.5661405208641126
3583.4395,51.50866128608637,2.5071285173098437
3584.264,51.507554647091666,2.431625709487731
3585.0884,51.546451196845105,2.4350565140562908
3585.915,51.58866884687453,2.29886911046619
3586.74,51.59771383271733,2.5756905205219134
3587.5671,51.552708712561554,2.3965643807043397
3588.3923,51.45386277441701,2.4143589668124346
3589.22,51.31667654435683,2.599267436759943
3590.0457,51.16481784656362,2.708470680204326
3590.8716,51.01995600322502,2.650746381255062
3591.6995,50.897427614725984,2.601654560582078
3592.526,50.8029243609689,2.6710892673010282
3593.3542,50.72940109229626,2.5745178498280787
3594.181,50.66159230022635,2.637995525373433
3595.0098,50.582118251607945,2.535806382513973
3595.8367,50.482421795768715,2.425363523861048
3596.6638,50.36688600226635,2.5368940286215667
3597.4934,50.24921391067941,2.801759429149634
3598.3208,50.140547319698726,2.7181158851966476
3599.1506,50.03435737403904,2.6616018608419605
3599.9788,49.90803856085496,2.7302574970610096
3600.8088,49.73730501570392,2.7276356326857676
3601.6372,49.52562013769956,2.7350624127587695
3602.4678,49.31843555176422,2.6114318418151434
3603.2964,49.194258416571195,2.785485937399985
3604.1252,49.21937513715203,3.06724758218721
3604.9565,49.40764657379932,2.762136715624006
3605.786,49.705705541112394,2.716329930851901
3606.6172,50.02378352542325,2.7084363047389
3607.447,50.274023453236694,2.587853677951966
3608.2788,50.40497916657079,2.470516510733581
3609.109,50.40462668807311,2.657854900604928
3609.9392,50.29319782766281,2.829306044655815
3610.7717,50.10722573029022,2.7982440910511137
3611.6023,49.89078868613362,2.5422493441522023
3612.435,49.683533616116755,2.6921860614769124
3613.266,49.51522062473235,2.722401641725336
3614.0994,49.392701645406795,2.83310689197448
3614.9307,49.30068320439427,2.668682685145831
3615.7625,49.21014897336387,2.726334205768884
3616.5962,49.09821555688227,2.8444107357506305
3617.4282,48.962169982346126,2.8304774780356485
3618.2625,48.81675905616121,2.8801411334486917
3619.0947,48.68463440321198,2.885242990877136
3619.9292,48.58119679403816,2.854824365064066
3620.762,48.51115609855898,2.7885768684018233
3621.595,48.46732541135002,2.8846842126873122
3622.4302,48.4358216833558,2.8062949622261586
3623.2634,48.40232969394578,2.8291908554975085
3624.0989,48.35846631566517,2.8689889220137843
3624.9326,48.306551132943476,2.870450953105435
3625.7686,48.256565775066754,2.694257378185528
3626.6028,48.2193064791701,2.878476366479781
3627.437,48.19713497895086,3.028846218644289
3628.2734,48.180763049457575,2.849421190070586
3629.1082,48.15358560574103,2.664279402758381
3629.945,48.10199798468167,2.911520751830566
3630.78,48.02554982235638,2.921526258215607
3631.6174,47.93580458477984,2.8366260756214126
3632.453,47.847888000410684,3.0430800692880604
3633.2883,47.76832196123656,2.756773151009101
3634.1262,47.693229497694716,2.9919325077581194
3634.9622,47.61411595420761,2.9791974512882975
3635.8005,47.522414217462256,2.8117968137783267
3636.637,47.41395150476693,3.1057563989626518
3637.4756,47.28784885386343,2.954915663527145
3638.3123,47.14939415928589,2.9661868595406453
3639.1492,47.00720634209876,2.985273404671098
3639.9885,46.87069437856121,3.1464456809650234
3640.826,46.74699618599859,3.040917171847834
3641.6653,46.63720598268501,3.077756696422299
3642.5032,46.54071931131364,3.251291450433279
3643.343,46.456166319484566,2.9277571968510867
3644.1812,46.38388973628554,3.0155407917714863
3645.0195,46.323120908005926,3.0741377914210304
3645.86,46.27052700138482,3.170500776645007
3646.699,46.22035433391428,3.210259067714754
3647.5398,46.166735177731276,2.960185871695913
3648.379,46.108358096397325,3.090590898186434
3649.2202,46.04703170070887,3.2706906647948975
3650.0596,45.983472467227415,3.0701092291721364
3650.8994,45.912178850777124,3.2621495703717183
3651.7412,45.82522769165015,3.172697437339592
3652.5813,45.721609551941604,3.424250778642016
3653.4236,45.61100978247332,3.2142703957079273
3654.2642,45.511152948752326,3.0739190958037197
3655.1067,45.43565671624179,3.3874932546482355
3655.9475,45.388778779330885,3.259559335853325
3656.7886,45.36548612989859,3.318310651382923
3657.6318,45.35846531142937,3.110521618814721
3658.4734,45.36287037252219,3.2121224249778217
3659.317,45.37639361575585,3.101691950974301
3660.1587,45.39539012508675,3.200922938324341
3661.003,45.41080791544706,3.25943446382105
3661.845,45.4078679266852,3.1807546042806436
3662.6875,45.37339025571284,3.33167637014892
3663.532,45.305862205743374,3.24750004083786
3664.3748,45.220663924238494,3.313333922619907
3665.2197,45.14125927034004,3.379772377583676
3666.063,45.084967839445866,3.246699919053864
3666.9084,45.05017429884311,3.3137227415191695
3667.752,45.01918120346967,3.1363942446417448
3668.5977,44.97153187972187,3.427807177606719
3669.4417,44.90046900486089,3.4006883726091632
3670.286,44.81699747310354,3.309278872146838
3671.132,44.74073481246589,3.4363854628013555
3671.9768,44.685550667074835,3.2992512637182045
3672.8235,44.650055885361766,3.5076644426603796
3673.6685,44.62084619183324,3.5399857028521198
3674.5156,44.5806630768972,3.341610112586703
3675.3608,44.51818451326804,3.4679960462849286
3676.2063,44.432460026657125,3.2446472574294867
3677.0542,44.332308902100046,3.6125150323379396
3677.9,44.23189678443817,3.4652973838379575
3678.748,44.14245887696178,3.5615373589892765
3679.5945,44.07062977748233,3.492989277558646
3680.4429,44.01575455808776,3.4171649654273626
3681.2896,43.97186117396745,3.3791258202605152
3682.1365,43.92998699986142,3.632188110687161
3682.9856,43.884670064486585,3.4685124838750094
3683.8328,43.83881161454444,3.5666804091517936
3684.6824,43.800631166097496,3.4732344543336264
3685.53,43.77681317886421,3.463601099136363
3686.38,43.766283195439925,3.39009997053851
3687.2278,43.762127501389855,3.3099014616074807
3688.0762,43.75669231862598,3.5891571188542457
3688.9265,43.7453466709671,3.6102195557549246
3689.7751,43.72686237159676,3.531577735517618
3690.626,43.70197598908496,3.5564101168667204
3691.475,43.67229102115248,3.4056232236642034
3692.3264,43.63821904800612,3.4179949298995838
3693.1758,43.59834853728815,3.5255015664713785
3694.0254,43.54951276665719,3.5571275950050714
3694.8772,43.4895133247765,3.457075587657383
3695.7273,43.420081625489914,3.5284360302259294
3696.5793,43.345529801799884,3.5283332793252455
3697.43,43.27012174422025,3.6098856645690423
3698.2825,43.19312355962798,3.4901306987199794
3699.1333,43.110888626859676,3.6311570891584
3699.9841,43.020940471895706,3.6045940794859415
3700.8374,42.92585572318149,3.7717193304225636
3701.6887,42.83167759750171,3.651551656706005
3702.5425,42.74074235750515,3.529330690507955
3703.3943,42.65159693651573,3.633260627532447
3704.2483,42.56025813541818,3.7298538595616835
3705.1003,42.465838547021264,3.6232019435283096
3705.9526,42.36918439480053,3.826433163280882
3706.8074,42.2710021015378,3.835216972623285
3707.66,42.171621686153905,3.6124415635141562
3708.515,42.07111198344594,3.687992836891073
3709.3682,41.97322899915468,3.898373562645939
3710.2234,41.88223372317629,3.7994698490936534
3711.0771,41.80170518073804,3.7947529469395906
3711.9307,41.732056921598335,3.8341264385435903
3712.7866,41.671830379167226,3.7017310393456384
3713.6409,41.61941589333939,3.8261332734835762
3714.4973,41.57330089567006,3.9356124717799705
3715.3518,41.53438381669531,3.908570069768906
3716.2085,41.50468829568602,3.819601811804525
3717.0635,41.484684261742295,3.636220119992599
3717.9185,41.4689546039899,3.797853071384644
3718.776,41.446976605757804,3.939816289435046
3719.6313,41.40945119900373,3.64702479763455
3720.489,41.354394141024464,4.006536334276529
3721.345,41.28792130197101,3.8494934912539174
3722.2031,41.21642078926565,3.9379665776918595
3723.0593,41.14130737351558,3.8938245614681746
3723.9158,41.058561774275496,3.8603144431971748
3724.7747,40.96546726469131,3.8731332660670468
3725.6316,40.866441210626455,4.039668658453799
3726.4905,40.770628078993326,4.0587863575992476
3727.348,40.68785940916898,4.16388074651953
3728.2073,40.6210073900087,3.9709221425480226
3729.065,40.56556583993398,4.038009584826132
3729.9229,40.512488824757746,3.9183774018747117
3730.783,40.45420421808763,4.100622417020907
3731.6414,40.38777962691075,3.990891470062551
3732.5017,40.31372059344349,3.998863111575524
3733.3604,40.23587280240355,4.33672847388344
3734.2214,40.158471591343776,4.316271241164535
3735.0803,40.08516043233055,4.334961617084188
3735.9417,40.01550196097742,4.622258124193507
3736.8013,39.947009358948,3.9502066507459572
3737.661,39.8768115804063,4.138358640208905
3738.5227,39.80555272769616,4.106322329268107
3739.3828,39.739690244975286,4.060754513468225
3740.245,39.68846299936934,4.340110573800877
3741.1055,39.65942904306129,4.268844844980263
3741.9683,39.65190364368973,4.342255605691483
3742.829,39.6566845735297,4.456652076921084
3743.69,39.66106033107493,4.30269858869029
3744.5532,39.65611909515713,4.287707087737263
3745.4148,39.64040937887077,4.325308159078435
3746.2786,39.617937504584916,4.344610898666295
3747.1404,39.5933773421484,4.346782379206231
3748.0044,39.56717919556858,4.233597636561354
3748.8667,39.53448743578305,4.113237587701233
3749.729,39.48712923657316,4.2359605313425766
3750.5938,39.41950611129699,4.118583722103392
3751.4565,39.335739634497635,4.255427279185321
3752.3215,39.249626942450625,4.140865731486621
3753.1848,39.178177473825244,4.601719608698377
3754.0503,39.12763158970509,4.211590313827143
3754.9138,39.088513029867315,4.349300042144857
3755.7776,39.041537984633834,4.4378885648844975
3756.6438,38.972070534885084,4.462887401586332
3757.508,38.88038956328594,4.363630969427604
3758.3745,38.7793458700076,4.307326091470373
3759.239,38.68767553453981,4.40150105438223
3760.106,38.619525865762846,4.4886752392335705
3760.971,38.580758506810824,4.50963955463555
3761.8362,38.56622316063646,4.687087608541814
3762.7036,38.56287491416708,4.461705145816769
3763.5693,38.55480289746295,4.683962519841015
3764.437,38.5289804122496,4.507950460227772
3765.3032,38.47937565134542,4.637087727382736
3766.1714,38.407215591940606,4.544369840976879
3767.0378,38.31989442244859,4.629581741645398
3767.9043,38.22704326179516,4.567273778063951
3768.7732,38.13814617258177,4.499756819833257
3769.6401,38.06135834182308,4.656718423485787
3770.5095,38.00044559470005,4.495327976394942
3771.377,37.955576947083195,4.795787576171009
3772.2466,37.92274924285766,4.734796149442111
3773.1145,37.89646413000526,4.730437419431746
3773.9824,37.87135069842383,4.61093794385174
3774.8528,37.84476181796615,4.725705479857163
3775.721,37.818752040168725,4.9149285073289795
3776.5918,37.798920431407694,4.90390375609946
3777.4604,37.79124442569334,4.739062201667071
3778.3315,37.79758209450784,4.591530630845839
3779.201,37.81447958851417,4.554172797389821
3780.0703,37.83461157578318,4.8157026658370325
3780.942,37.848551335501405,4.60402308635166
3781.8118,37.845870103151505,4.775464544482909
3782.6838,37.81777355734438,4.694340706267384
3783.554,37.761810509542656,4.6500400550900345
3784.4265,37.684521924175556,4.921038969359993
3785.297,37.59991124590744,4.9215534715296965
3786.168,37.52009892721892,4.620171902410304
3787.041,37.44862831721993,4.633492974239683
3787.912,37.380690969234344,4.915990843575867
3788.7856,37.308434109645496,4.784814950217202
3789.6572,37.22906404753625,4.90953048394665
3790.531,37.14427951277384,5.149831448081471
3791.403,37.05745012316175,4.900959990985372
3792.2754,36.96857639896444,4.708884803640635
3793.15,36.87585758986717,4.7822810430434135
3794.0225,36.78031393005863,4.890808441527724
3794.8972,36.68628098030444,5.014751714474644
3795.7703,36.60116972417227,5.000243278634802
3796.6455,36.52979085017391,5.026967577076374
3797.519,36.47270357051896,4.980433828025583
3798.3926,36.42459283276069,4.921659482156847
3799.2686,36.37746459979023,5.0012317110921805
3800.1426,36.325882705534404,4.909249824701834
3801.0188,36.27028056955744,5.152176205300812
3801.8933,36.21785480655909,4.845855797006354
3802.77,36.17685542286035,5.41174712596097
3803.6448,36.15184536062314,5.413177032457335
3804.522,36.14130699771826,5.0623413411349
3805.3972,36.14113259090957,5.130392923465769
3806.2727,36.14806094867161,5.132992299884447
3807.1504,36.16038391021338,5.265598025803105
3808.0261,36.175773324242265,5.098704813822429
3808.9043,36.19043065294973,5.346674219442942
3809.7805,36.200216496055866,4.944472805038998
3810.659,36.20289672399796,5.127652524711873
3811.5356,36.198140344409374,5.123094172196626
3812.4126,36.185679323714204,4.8942171933342955
3813.2917,36.16320367666527,5.19449340232139
3814.169,36.12699105520819,4.908291780669416
3815.0483,36.074700922771726,5.28289996631476
3815.926,36.009335372506776,4.978147529582281
3816.806,35.93760024024407,5.3225716153538665
3817.684,35.86560886691832,5.674731215295798
3818.5623,35.79252856987724,5.181569302055028
3819.4429,35.7114811822944,5.284825820649134
3820.3215,35.61665813152119,4.804445124030066
3821.2024,35.507835259740546,5.148718548358997
3822.0815,35.39199860394934,5.484439738490488
3822.963,35.27602714099297,5.21172517418207
3823.8423,35.16380207551966,5.598579518869833
3824.722,35.054308636720855,5.453585213841855
3825.604,34.94632732442751,5.491242272989668
3826.4841,34.84235471045074,5.51635077034814
3827.3665,34.74611173062656,5.511887165727032
3828.2468,34.661067707435855,5.628871494410736
3829.1296,34.58606115564067,5.63079077810368
3830.0105,34.51764546196062,5.634082180881668
3830.8916,34.45188660503602,5.627222528285685
3831.7751,34.38784443932705,5.772685871116366
3832.6565,34.32841459192246,5.793238951571135
3833.5403,34.27713338816312,5.6358978314602375
3834.4224,34.236551940694895,5.691947904223925
3835.3064,34.205343681791746,5.876883338116471
3836.1887,34.178814917992895,5.980874640529598
3837.0713,34.15032761418149,5.6192913058941905
3837.956,34.1152238394218,5.765800971520545
3838.839,34.074858781371205,5.684763183417404
3839.7244,34.03725593633815,5.943719473957252
3840.6077,34.0148921839823,5.7918720180975605
3841.4932,34.01819003732696,5.7692423137106745
3842.377,34.04977595515222,5.748448837934811
3843.261,34.10166988516401,5.699334926594247
3844.1472,34.15808893374781,5.866233802946585
3845.0315,34.20216677686009,5.550291016469994
3845.9182,34.224845510369775,5.369375940549104
3846.803,34.22798215582235,5.707351448447013
3847.69,34.221970148303384,5.730310013142834
3848.5752,34.218052327966575,5.75868510345399
3849.4604,34.221341932273646,5.27221325701831
3850.3481,34.22871166399918,5.76830697468569
3851.234,34.2315866329254,5.745956170903014
3852.122,34.2211501274787,5.7793574976288165
3853.0083,34.192702747645626,5.697073054877158
3853.8967,34.14751904312005,5.5307576577883655
3854.7832,34.09288525768478,5.827317860522579
3855.6702,34.0383570818951,5.7517134098941325
3856.559,33.99165007215133,5.848097625819646
3857.4463,33.955432402903234,5.74643507426601
3858.336,33.926442598889025,5.7739303433779385
3859.2234,33.89871731485615,5.6347092889424575
3860.1135,33.8659820453047,5.957534852669943
3861.0015,33.82411054628312,5.722438845241384
3861.8896,33.77113600808187,5.869585855422365
3862.7803,33.70785013071517,5.7699031359026245
3863.6687,33.6387902912217,5.74735463754446
3864.5598,33.57037506524503,6.140672846781034
3865.4487,33.50962904717971,5.652149344394914
3866.34,33.458689968445505,6.079401074795662
3867.2297,33.413292361238334,6.1101546361787875
3868.1213,33.3633529524329,6.299274281049143
3869.0112,33.29989134886193,5.9769122249652815
3869.9014,33.220306528861855,5.933633065639213
3870.7937,33.12907953930058,6.2591591713197925
3871.684,33.033235013961246,6.390604097142047
3872.577,32.935342705932634,6.1941402808623724
3873.4678,32.83492389880793,6.359124657820006
3874.361,32.73006729351625,6.241295634860443
3875.2524,32.621988401972025,6.280107905099284
3876.1438,32.512433736271994,6.239677069549666
3877.0376,32.40202508064935,6.342356783836942
3877.9297,32.290020054567705,6.214126553600198
3878.8237,32.17299934439967,6.220443118019116
3879.716,32.047717218343394,6.42875844596424
3880.6108,31.90958846682776,6.419665338025302
3881.5037,31.755418839575043,6.704713704368082
3882.3965,31.58218915775688,6.533376678061746
3883.2917,31.389586033774858,6.787010243108907
3884.185,31.18351366007151,6.737932907147791
3885.0808,30.972676680799438,6.658692245432045
3885.9746,30.769954017600003,7.248367515141822
3886.8706,30.584832258962955,7.042029339206485
3887.765,30.425514527518196,7.24895658473287
3888.6592,30.29780003792958,7.274234222963475
3889.556,30.208831411433923,7.405167848811591
3890.4507,30.166281450025334,7.244230383232811
3891.348,30.17207693093545,7.166788595013198
3892.243,30.219522555197383,7.276379132362251
3893.1406,30.295532184031917,7.295781384736241
3894.0361,30.386445350283516,7.297647350715597
3894.932,30.485038870779874,7.2098336214086
3895.83,30.5908879511443,6.9846515622058485
3896.7263,30.706124484828777,7.482874698817703
3897.625,30.833077046368963,7.298884087591037
3898.5215,30.969798890881798,7.028404739683139
3899.4207,31.113481251639204,6.840486438249029
3900.3176,31.259914400908883,7.007947389306731
3901.2148,31.407624962668656,6.838846904592624
3902.1145,31.555958266188348,6.810157488538158
3903.0122,31.702354494301,6.746294702409809
3903.912,31.844273736460977,6.872044542655667
3904.8103,31.977422092817676,6.702710370247879
3905.7107,32.099335057108675,6.400147433182662
3906.6094,32.207472372631166,6.544449841249721
3907.508,32.301054273040315,6.0117091068882935
3908.409,32.380394972227606,6.088971644980957
3909.308,32.44661677097854,6.397872207627523
3910.2097,32.502172376191794,6.2348438705699225
3911.1091,32.54826402996155,6.733687165730001
3912.011,32.58529087178506,6.1753583255752895
3912.9111,32.61246515592968,6.470922769586511
3913.8113,32.62893366383877,6.564615180395438
3914.7136,32.632868646066456,6.645806857570705
3915.6143,32.62180037561564,6.012971112620449
3916.517,32.595768744925344,6.60822054786697
3917.4182,32.561327577765475,6.391008335671014
3918.3215,32.530417772230855,6.267841209771543
3919.223,32.51427714160996,6.785550477598114
3920.1245,32.51607825187708,6.288742567783809
3921.0286,32.530438139098415,6.315081390853129
3921.9307,32.548075754222694,6.155947078436156
3922.835,32.56139905426678,6.473369715162733
3923.7373,32.56616752550597,6.2814428248405845
3924.642,32.56090925933883,6.249988909443753
3925.5452,32.54582709941561,6.316298010292215
3926.448,32.52267236841417,6.419047748139349
3927.3535,32.49483552971954,6.295204942341442
3928.257,32.46654349653636,6.164579130421376
3929.1628,32.439227677478854,6.252038176078648
3930.0667,32.40925749447593,6.6670683826035235
3930.9731,32.36866838554769,6.112745290002764
3931.8774,32.3116358807563,6.2394766039137926
3932.782,32.23948947526465,6.563641923463309
3933.6887,32.16134596149395,6.5028499034534
3934.5938,32.08906701872933,6.862566174765695
3935.501,32.02890610720698,6.721944507610581
3936.4062,31.979648707310798,6.310702601673581
3937.3142,31.934375916080995,6.308471108303919
3938.22,31.88662298219625,6.4744137597668825
3939.128,31.83168959687688,6.531566815627141
3940.0342,31.76594680879959,6.628602036461898
