wavl,flux,ivar
3566.9744,1.8353345609468525,181.70221654941147
3567.795,1.8088193016484961,329.75736301294535
3568.6177,1.7868515379165024,89.43468171707855
3569.4385,1.7714109157684457,198.57777179347204
3570.2617,1.761160962594503,166.3773188224476
3571.083,1.7536076848840398,127.47832740302843
3571.9065,1.7465345411181419,47.9872593374721
3572.7283,1.7390167203048374,126.55164628484243
3573.55,1.7314363997877709,197.55226286949426
3574.374,1.7250216496355084,53.93177298725348
3575.1963,1.7209201605882178,43.3802719163154
3576.0208,1.7193593492025077,305.3484026565769
3576.8435,1.7197325126106333,167.92932283328423
3577.6682,1.7210955046985654,63.979730637805176
3578.4915,1.7228522012881733,243.9566353484018
3579.3145,1.7254982168484045,177.10092965452665
3580.14,1.73099402880455,182.40349538605443
3580.9636,1.7418713455466026,242.5162018201993
3581.7893,1.7593979304726461,176.19810969644075
3582.6133,1.7818566436569052,97.57776463737801
3583.4395,1.8052167214739387,182.92514447505272
3584.264,1.8247248839294687,99.34438582176739
3585.0884,1.8373157120039698,165.07592352943618
3585.915,1.8422867879366787,115.56547650259422
3586.74,1.8409888506537788,72.02208505730451
3587.5671,1.8362118367210416,79.00296993805026
3588.3923,1.8318588276309267,150.89019457289882
3589.22,1.832351322668927,52.63925378816461
3590.0457,1.8407566295169568,97.99367548082688
3590.8716,1.8560256605922771,201.55597503996927
3591.6995,1.872122548292583,115.659408299054
3592.526,1.88061430307054,62.863315589562035
3593.3542,1.8756371763613564,108.35823237200023
3594.181,1.85691092057359,85.69377115696713
3595.0098,1.829059152868031,66.93379520892636
3595.8367,1.799035336923435,37.500993431569775
3596.6638,1.7731048486273757,157.66923178747106
3597.4934,1.756083061244754,113.38079380131026
3598.3208,1.751057103736538,111.293038807116
3599.1506,1.7581585726618914,72.86878833083952
3599.9788,1.7736303288097002,184.72324057911018
3600.8088,1.7907174353697275,103.95815189842462
3601.6372,1.8026615928746428,123.954222141651
3602.4678,1.8062129933272648,91.36045268408894
3603.2964,1.802281929381683,91.95853033325827
3604.1252,1.7943416176949303,186.13430995563684
3604.9565,1.7859903868026044,177.48917406228568
3605.786,1.7795702272077196,278.5071077441318
3606.6172,1.7758121965755251,112.49076009833271
3607.447,1.77469157439457,204.5981746825742
3608.2788,1.776235917321506,130.54863967606488
3609.109,1.7805983467302775,168.14596095151325
3609.9392,1.787130469069456,213.75226339756156
3610.7717,1.7937189489156167,140.29141813277454
3611.6023,1.7978352494708538,54.66032622727042
3612.435,1.7990382002223106,141.97178795628787
3613.266,1.7999738282290136,201.89138603429296
3614.0994,1.8044147633610823,194.38632349902034
3614.9307,1.8136655161383644,177.5097620116608
3615.7625,1.8250359686250683,66.37950594050142
3616.5962,1.8336763725408303,241.69415888705385
3617.4282,1.8359232007576805,87.69010486991189
3618.2625,1.8313113173408306,66.73682205695285
3619.0947,1.8219909928350877,95.55408447993375
3619.9292,1.8109567934572486,131.88746160235073
3620.762,1.8008370971273129,83.9967988332192
3621.595,1.7929510302211582,194.67978553731615
3622.4302,1.7869416691359485,81.22049987871199
3623.2634,1.7809118796044363,130.15646518376622
3624.0989,1.7724687952858786,286.36812085466977
3624.9326,1.7606187095070607,148.4404137201084
3625.7686,1.7465216208367065,105.18223566624846
3626.6028,1.7327521364339489,43.915595861178616
3627.437,1.7210524431657885,52.76103020289353
3628.2734,1.7114035734356825,187.68791803013207
3629.1082,1.703055362439914,170.0893495053173
3629.945,1.6960438262967612,41.858430981380806
3630.78,1.6919380309357421,162.57940116617917
3631.6174,1.6930317307834122,128.47540949612417
3632.453,1.7012189638409383,214.74492605321475
3633.2883,1.7166588242366714,140.15217625403764
3634.1262,1.7367459578725943,78.33203124414365
3634.9622,1.7560120373233505,139.77920251425348
3635.8005,1.7685547286066907,164.0402428111995
3636.637,1.7706942861232489,28.955076999704275
3637.4756,1.7629613971868225,39.102080703824186
3638.3123,1.7492899839986666,322.3744624382242
3639.1492,1.7344324830817552,76.73954381103987
3639.9885,1.7217753057451053,176.78458889771517
3640.826,1.7127609202725054,171.48091349954075
3641.6653,1.7071052657965777,224.1581310522386
3642.5032,1.7035845189395988,56.668979486091565
3643.343,1.7005823071120278,176.0234747055784
3644.1812,1.697120046803924,49.890761023445634
3645.0195,1.6934734516525811,148.04353900299955
3645.86,1.6907048041865271,34.452544153081476
3646.699,1.6894338802474766,40.24514505753895
3647.5398,1.6892657105128877,84.51939233281011
3648.379,1.6895917166186754,78.06939184824371
3649.2202,1.6904568901908845,99.99125060566945
3650.0596,1.6920448275825848,42.15834869491947
3650.8994,1.6930984343663573,181.0456015810846
3651.7412,1.690189617998027,405.29878285396205
3652.5813,1.6792683184822763,123.99740605938598
3653.4236,1.6583742812566449,96.57053769903392
3654.2642,1.6298091109980337,65.66549418984475
3655.1067,1.5996404783332159,237.69888944273305
3655.9475,1.576054860144642,170.34359945248474
3656.7886,1.5656716043749683,101.23641928583396
3657.6318,1.5707630141599318,192.95653026292533
3658.4734,1.5877695899312416,27.01788499134836
3659.317,1.6090056784651214,48.26040571850582
3660.1587,1.6264284662138104,46.96123776834896
3661.003,1.6361370727512514,107.32188905778499
3661.845,1.6397492309267914,217.75553918057537
3662.6875,1.6424038537041985,292.03525450423484
3663.532,1.6482217019254664,219.81212234132937
3664.3748,1.657169478266223,172.58098840324502
3665.2197,1.6658636281489771,44.11604056618768
3666.063,1.6711742160062353,17.481521385860866
3666.9084,1.673546709652534,55.092665119928654
3667.752,1.6762727622507108,63.537706049753915
3668.5977,1.6815300844241563,140.56577373262522
3669.4417,1.6871282681715425,370.1074254659907
3670.286,1.6881554029360026,47.592555018181194
3671.132,1.6821762283972292,38.94144167484047
3671.9768,1.6729448567736147,184.86255038956782
3672.8235,1.6682303999905224,103.06431889954395
3673.6685,1.6736126334248729,22.576047277145964
3674.5156,1.6877844398223174,36.35235149814405
3675.3608,1.7037465529626679,230.27618538241865
3676.2063,1.714857278349761,64.1677777682514
3677.0542,1.7194241049424697,101.15282709662762
3677.9,1.7202600397746506,49.480832922987716
3678.748,1.7205961007741801,97.38233643595586
3679.5945,1.7209853902658883,62.91484055825437
3680.4429,1.7200204435043664,135.7185984292554
3681.2896,1.7168584190442402,151.96978353679737
3682.1365,1.7121727580236097,53.14826795899193
3682.9856,1.7069516936106994,97.96656995130363
3683.8328,1.7015681484106815,167.08268730536923
3684.6824,1.6965076548859457,37.63814313015601
3685.53,1.6934519764539935,195.3182494147919
3686.38,1.6939921383859,140.3337052323528
3687.2278,1.697223468412244,142.25178937627285
3688.0762,1.6994048733064995,24.247113369731448
3688.9265,1.6967708942770372,135.3980694303965
3689.7751,1.6887048098018544,133.8525535373725
3690.626,1.6779677682829697,122.04657358941972
3691.475,1.6684361979071554,116.56694492536869
3692.3264,1.6625284689036692,56.212419033074234
3693.1758,1.6608335185623408,196.3554523362072
3694.0254,1.6630068547931698,66.06662852872873
3694.8772,1.6688411622414683,202.84588932726925
3695.7273,1.6782022739347735,160.82631957140597
3696.5793,1.6904545602483119,133.1337140435779
3697.43,1.703705182189533,75.7287615012217
3698.2825,1.7150136845979977,42.43902929873438
3699.1333,1.7211676636521382,114.5391350120389
3699.9841,1.720626752407336,115.20812880991836
3700.8374,1.7148530020867736,215.212416550666
3701.6887,1.7078860757544314,156.75565828279474
3702.5425,1.703308416338467,113.5622902448896
3703.3943,1.7012384971984653,117.2589734746997
3704.2483,1.698084788690215,76.00841855080829
3705.1003,1.6899696776379984,249.5067734695519
3705.9526,1.6764407261879426,45.48393775583852
3706.8074,1.6611320785344639,140.88067816505605
3707.66,1.649141217528695,66.76611448115744
3708.515,1.643252568863461,80.70362897569963
3709.3682,1.6428551321540366,75.44440415576734
3710.2234,1.6451913717162963,45.648718555260324
3711.0771,1.6476574158897854,118.77861657019255
3711.9307,1.648970609736031,420.37719604763265
3712.7866,1.648872762669024,115.24232851618434
3713.6409,1.6474409029115042,254.43801311017916
3714.4973,1.6448541583177008,243.97920266555187
3715.3518,1.641655283012685,128.66742876482118
3716.2085,1.6388539247683418,98.16877536730195
3717.0635,1.6375252221169392,65.50166690329326
3717.9185,1.6378264344330495,98.10525317309931
3718.776,1.6384955885305703,235.81189904369376
3719.6313,1.6374797091656677,65.19752974573949
3720.489,1.6333474200415559,162.50290883646053
3721.345,1.626194561540462,69.13983895844551
3722.2031,1.61726164533606,269.9386282842989
3723.0593,1.6082906369735916,228.95999927612297
3723.9158,1.601169781388242,257.78598338307137
3724.7747,1.598281796692216,180.41225460370453
3725.6316,1.6022584505447042,82.5569996741762
3726.4905,1.6146224887741567,195.49274791069584
3727.348,1.6338996765420184,161.71983841983368
3728.2073,1.6551020228921742,109.3241929820682
3729.065,1.6712361423612545,111.56403043187665
3729.9229,1.6772375934126884,112.41497008476944
3730.783,1.6725615152705764,191.90916657662615
3731.6414,1.6609946185342355,54.914415110354796
3732.5017,1.6476630006910602,199.30517184974255
3733.3604,1.63637356517995,266.4070299821293
3734.2214,1.6285916379617495,103.32111906932366
3735.0803,1.6244015022533598,175.41275563063718
3735.9417,1.6234053908328279,82.80170937822331
3736.8013,1.6254636444146975,213.4016675334191
3737.661,1.6307331925276836,122.25118449324576
3738.5227,1.6392015222195508,129.1219382954575
3739.3828,1.6498808981490891,110.72159725431227
3740.245,1.6608225980668228,86.66265029295438
3741.1055,1.669607764575603,297.31240971677636
3741.9683,1.6742621160393758,136.1732237827757
3742.829,1.6733268662703615,182.78639478171556
3743.69,1.666000042129527,117.16035411372448
3744.5532,1.6523185392559594,247.13664960631434
3745.4148,1.633699329035404,133.22875493552908
3746.2786,1.6125897128331255,194.13124345488401
3747.1404,1.592013445204364,106.53145619327317
3748.0044,1.574274313780317,140.47633346326342
3748.8667,1.5611197416206761,46.32275452238166
3749.729,1.5540846406269986,114.63278146854951
3750.5938,1.554907459866931,72.96284757489107
3751.4565,1.5642244808839385,186.86756044942422
3752.3215,1.579943164067527,357.8234049972995
3753.1848,1.5972160485729203,25.03103102737626
3754.0503,1.6110792692680465,112.2348005796102
3754.9138,1.6189689020382902,189.9919162235387
3755.7776,1.62206238774632,192.4419472120263
3756.6438,1.6240418492400015,174.572158300042
3757.508,1.6285344135006752,94.24968107260062
3758.3745,1.6364848566150707,64.84977106909973
3759.239,1.6451073268745005,92.09854833631545
3760.106,1.6497662049412916,167.73138964405118
3760.971,1.6472389446848263,233.7781085645014
3761.8362,1.6383166648120564,51.36577689222062
3762.7036,1.627442593288409,143.95374426438536
3763.5693,1.619984264207137,129.55634961988267
3764.437,1.6186341448071138,169.93493456193127
3765.3032,1.6219232883136954,288.91359121469367
3766.1714,1.6254484652421735,87.90807480791717
3767.0378,1.6247394839576021,131.43750449541844
3767.9043,1.617494718137833,120.09217546192083
3768.7732,1.6038633277883036,101.81920956276682
3769.6401,1.5860542388891488,122.70744540906843
3770.5095,1.567864392151395,122.58038924292977
3771.377,1.5547462812865906,77.6328202635942
3772.2466,1.5516316736111087,234.39650840962685
3773.1145,1.5597858350465144,213.86477648111696
3773.9824,1.5748384783525256,292.71918363596825
3774.8528,1.5892067458820212,216.3883319681489
3775.721,1.5971468186601827,259.3398580844073
3776.5918,1.59867983633052,95.23385955498385
3777.4604,1.5985528835841532,94.52177016612201
3778.3315,1.6021790350168172,90.16398649399773
3779.201,1.6118762541260443,39.553090015558986
3780.0703,1.6260650566432513,134.75164730258092
3780.942,1.6410346192920555,90.41938406629751
3781.8118,1.6533550132356516,134.17717320295299
3782.6838,1.6618269773685048,83.78924088740678
3783.554,1.6672168207200027,66.3638035717413
3784.4265,1.6707199971817286,37.55176653831212
3785.297,1.6719245087640697,266.54278614646927
3786.168,1.6686937538270292,219.0083690823721
3787.041,1.6591784451126397,64.60623397201468
3787.912,1.6444299804505094,104.97519680613645
3788.7856,1.628525446760613,160.95457051607167
3789.6572,1.6163821983504412,183.63055818716393
3790.531,1.6102625829624178,142.6466503342555
3791.403,1.6084528216831813,331.8545694917139
3792.2754,1.6063674847908176,52.75887904817402
3793.15,1.5997148952312499,234.30168325350485
3794.0225,1.5872696806484925,289.2823899674173
3794.8972,1.5710198292370388,65.11752261693337
3795.7703,1.5544391004960363,72.52805979275824
3796.6455,1.5403157407841641,206.6847537710075
3797.519,1.530766432809774,89.91351690954892
3798.3926,1.5276674644456416,171.2199881920148
3799.2686,1.53259690385787,132.13972400180094
3800.1426,1.5453189592477596,246.7934585187226
3801.0188,1.562964377376208,123.43851019016553
3801.8933,1.5809470338106117,328.77071398124224
3802.77,1.5957391296560928,405.06402844621266
3803.6448,1.6062444642030866,256.33268154354823
3804.522,1.6135746626218028,432.7966507805755
3805.3972,1.6191101349775694,228.21785396938273
3806.2727,1.623536525501818,143.70904237952658
3807.1504,1.6269991841897669,189.12239509509433
3808.0261,1.6298149820710408,231.28860159827053
3808.9043,1.632680564298454,75.86087426665046
3809.7805,1.636117763080713,71.36300683845634
3810.659,1.6400485161338962,132.6804852775842
3811.5356,1.6437745114954299,286.72517089235987
3812.4126,1.6466325640671755,48.54123787995397
3813.2917,1.6486009289032473,40.87373426166666
3814.169,1.6501825785193673,166.9195858975233
3815.0483,1.6513538551335083,54.002011752028224
3815.926,1.650594684163839,103.38623929086415
3816.806,1.6456777691124205,119.57685361477472
3817.684,1.6361474760128936,147.6672724036481
3818.5623,1.6249928636830802,203.05529814000602
3819.4429,1.6173415903521442,117.5602455119859
3820.3215,1.6168231599838796,159.88875029675688
3821.2024,1.6226709754108826,123.74754527791849
3822.0815,1.6303600981519115,167.86691392609083
3822.963,1.6348127211671881,185.41768524173582
3823.8423,1.6330640790058246,144.65135999455208
3824.722,1.6248847845817602,109.334968519125
3825.604,1.6115971602017696,93.11606761374034
3826.4841,1.5951009419354665,228.01045545997854
3827.3665,1.5771423704729242,228.81792535984215
3828.2468,1.5594262088639215,150.59776855538976
3829.1296,1.5429879550884416,113.05154346581097
3830.0105,1.5281886718057351,248.30889792559896
3830.8916,1.5144054490529815,217.3235192192162
3831.7751,1.5005175142401708,156.99716784033535
3832.6565,1.485265893302308,61.743646520106196
3833.5403,1.4668574741636242,133.26225531787762
3834.4224,1.4434841990535943,292.6393837996426
3835.3064,1.4144597200440787,105.89787756256445
3836.1887,1.3826839039816763,293.70393391128226
3837.0713,1.3545485501528975,350.87724749882705
3837.956,1.337558387876296,243.69461157077174
3838.839,1.3366545815739446,194.44835877147892
3839.7244,1.3519598242730426,142.2046034500184
3840.6077,1.3793620825308015,385.61013188311966
3841.4932,1.4128351195007902,342.25555790595973
3842.377,1.4461207525729982,99.83915549596689
3843.261,1.474880900795876,42.464004854958816
3844.1472,1.4974645445995132,131.87226153653495
3845.0315,1.5148126688557983,73.38306946481447
3845.9182,1.5297499895614348,48.02060046130007
3846.803,1.5450326134512302,244.39491102091998
3847.69,1.5622873012533933,163.6273605063941
3848.5752,1.5809658681808152,57.61947130574345
3849.4604,1.5987743416018414,174.23767998470407
3850.3481,1.6128120303665343,182.19825689877896
3851.234,1.6214112366258637,87.06670438950206
3852.122,1.6258817175251854,37.23163429619229
3853.0083,1.6302369844032942,372.50992990671836
3853.8967,1.6394242498739773,118.40618880643467
3854.7832,1.656487383560636,206.10864094268638
3855.6702,1.6807634374988016,153.85145330559305
3856.559,1.7078314702998063,81.67315257514261
3857.4463,1.7313820834078408,68.60760078209603
3858.336,1.7466150607537387,53.286191036325405
3859.2234,1.7521634930654428,55.640623304831394
3860.1135,1.750647385149631,112.34828007125901
3861.0015,1.7466424328465617,122.33050733340346
3861.8896,1.743816735457174,128.8552800331239
3862.7803,1.7429749362095939,150.99048582296996
3863.6687,1.7423335671419922,47.33199376664851
3864.5598,1.7395690968323823,59.9016137131469
3865.4487,1.7337700869833785,114.26807724874445
3866.34,1.7255123079604868,221.47002897591938
3867.2297,1.715669618175192,156.0193160483969
3868.1213,1.7042991428772902,199.4485794357489
3869.0112,1.6912826343561551,63.997816059415186
3869.9014,1.6772621802911982,68.55889783602566
3870.7937,1.6637658247734133,100.49291708288295
3871.684,1.652036174688451,117.99200298842624
3872.577,1.6415239032263784,57.31230842124022
3873.4678,1.6299572299348657,130.67071460954497
3874.361,1.6140285855863445,273.96714956330726
3875.2524,1.5912352514126948,145.88560583036235
3876.1438,1.561501324556836,49.6225523155109
3877.0376,1.5282781781196615,261.40298838586517
3877.9297,1.4975926497973662,162.1824925543249
3878.8237,1.474115787224022,110.317784682726
3879.716,1.4588818623836264,109.66565757912981
3880.6108,1.4492374402078314,45.69101152800026
3881.5037,1.441613078686132,213.42535884575088
3882.3965,1.432963402871211,219.72224530515442
3883.2917,1.4203551128912113,106.70658974370703
3884.185,1.4001789251812207,257.9535989798112
3885.0808,1.3687152596616823,40.65508909941159
3885.9746,1.3251541875015138,113.30861776518168
3886.8706,1.2731490597593604,192.00156887634225
3887.765,1.2212690423856127,387.0454686334949
3888.6592,1.1794187137964272,262.4703059538691
3889.556,1.1555619152220573,105.41084703232077
3890.4507,1.1531980338473797,173.41029303451165
3891.348,1.1703403280720848,402.80115425817945
3892.243,1.2008406855163976,148.19093783070667
3893.1406,1.2371992479947318,116.92796826086021
3894.0361,1.272606648823723,252.6354465933546
3894.932,1.3032827803228337,162.76381403486585
3895.83,1.3285185128447972,177.45196722459025
3896.7263,1.349921535610632,98.24619710339412
3897.625,1.3705732429327893,181.18950261721994
3898.5215,1.392929548927002,321.15934905118235
3899.4207,1.4178157342649005,162.6101838111201
3900.3176,1.4436331695307252,47.84141826453469
3901.2148,1.4681421785272075,122.87889229023489
3902.1145,1.4902721951848747,167.6634868406576
3903.0122,1.510924634763874,67.04380455031831
3903.912,1.5322259693629092,304.19585533405495
3904.8103,1.554909811371583,89.19379862467012
3905.7107,1.5775284425237808,151.29974450620782
3906.6094,1.597119279567005,227.89336390537503
3907.508,1.611822550868502,54.946114282341206
3908.409,1.6221742544766418,74.11770261339919
3909.308,1.6306553027709896,90.26783723887866
3910.2097,1.6401214894023768,78.5244162156973
3911.1091,1.6519363997582637,56.98930585118361
3912.011,1.665690593060292,143.52184390811354
3912.9111,1.6797859694106647,102.79621875231277
3913.8113,1.692819329880452,108.01033494690353
3914.7136,1.7040970398803454,68.8534556913761
3915.6143,1.7136990697983943,76.91311148694233
3916.517,1.7228103390650156,61.613523517726136
3917.4182,1.7334099062648398,127.64788370737053
3918.3215,1.7473718606344377,166.20777165790383
3919.223,1.7647266852669041,103.62891127875389
3920.1245,1.783344176669556,121.28346025636239
3921.0286,1.7999919843344638,171.5668625019216
3921.9307,1.8121335240083727,122.98978127937896
3922.835,1.8194412393404786,94.39182284113038
3923.7373,1.8234207028201712,139.30547168327172
3924.642,1.8262835576233782,96.39025193706887
3925.5452,1.8294064594675286,116.6249126980987
3926.448,1.8327814249435732,172.48354987203598
3927.3535,1.8355528166011734,82.36782635764915
3928.257,1.8369988905717298,56.17962425799173
3929.1628,1.837063878615616,151.9279923318136
3930.0667,1.8359738939370436,46.27647186788666
3930.9731,1.8335410173181539,84.5244360138183
3931.8774,1.828930672428317,157.17110796836587
3932.782,1.8212477711427126,117.03929280278815
