wavl,flux,ivar
3566.9744,6.6115314035018375,21.93518450717694
3567.795,6.592943716341979,25.0160551080761
3568.6177,6.570469381768375,24.248750307189866
3569.4385,6.549219500427362,30.19138405757522
3570.2617,6.531305576458351,23.71968817905926
3571.083,6.514957541310948,22.231641309156515
3571.9065,6.49684968536515,20.664554357568015
3572.7283,6.476984925363624,27.72111224489202
3573.55,6.46023402276618,34.13805374708535
3574.374,6.4533877740071635,26.88297717471167
3575.1963,6.45974144462383,24.518099357285564
3576.0208,6.4761625512234655,20.801769282264384
3576.8435,6.495061910000171,25.180510397620495
3577.6682,6.509504683658758,22.491624645918115
3578.4915,6.516420792723916,25.329561966154387
3579.3145,6.516572001413917,22.548384506616628
3580.14,6.511821968526783,28.716224533268694
3580.9636,6.503706763441565,36.470095073945004
3581.7893,6.49453616840832,22.71361267936793
3582.6133,6.4894831907233,26.61335648287664
3583.4395,6.49572510403129,29.032162407777957
3584.264,6.5179285804508025,28.260858795061385
3585.0884,6.553305051624603,22.725855868858932
3585.915,6.5911825554600325,21.110960565348815
3586.74,6.617955170104944,19.05114861680138
3587.5671,6.625167034545019,27.406276789577703
3588.3923,6.613096533441243,29.22287529771688
3589.22,6.588673928036997,29.78958309316257
3590.0457,6.559637310960771,24.837649225142098
3590.8716,6.529421607789421,26.688958410186235
3591.6995,6.4972113512588905,20.55362541933219
3592.526,6.461553813703933,26.70241231635209
3593.3542,6.423054481853081,31.04711921606461
3594.181,6.3854422044528745,23.596198540115164
3595.0098,6.353263144940652,24.345478601639197
3595.8367,6.330576399012198,28.475634733216665
3596.6638,6.318982593036342,29.274928310845056
3597.4934,6.317191576992225,24.859763891617895
3598.3208,6.320955315906747,22.25611981420077
3599.1506,6.324295865174545,32.13270411153669
3599.9788,6.321830900043313,29.607331399530196
3600.8088,6.312028226617206,28.56570324347719
3601.6372,6.301876023865748,30.596996399560606
3602.4678,6.313603699874903,24.871330032033406
3603.2964,6.392151543321626,26.943680315112907
3604.1252,6.605567537090141,32.82419071750553
3604.9565,7.024043079348514,29.211875487266582
3605.786,7.659536200018492,26.389269406039467
3606.6172,8.409657692984416,26.324136502939307
3607.447,9.041748675788567,30.819319644042217
3608.2788,9.307175180886103,0.4668422839738618
3609.109,9.093739109675877,24.095019013934014
3609.9392,8.509763262713166,25.86367204090055
3610.7717,7.799233426525994,26.919782861233784
3611.6023,7.188956830404579,28.454700543628782
3612.435,6.77332005683567,23.346512178574677
3613.266,6.535627095158457,28.973802421223436
3614.0994,6.4090605746879685,26.343512905103143
3614.9307,6.3370199994046486,30.987003963194482
3615.7625,6.287606004775927,24.95530757557569
3616.5962,6.249344249570679,29.819811233923986
3617.4282,6.220712751908193,31.200253487915067
3618.2625,6.2020556391953585,26.497893376645788
3619.0947,6.192535677320617,27.331255389792343
3619.9292,6.189875072964813,25.73562052316385
3620.762,6.192297290041486,26.40289751645602
3621.595,6.198951489536237,23.645038898609332
3622.4302,6.208533087985785,31.92973650438774
3623.2634,6.217536100207557,21.90036019248222
3624.0989,6.220463355471655,23.34725624816814
3624.9326,6.211779034596685,26.31830611769166
3625.7686,6.1889578206405425,21.695551520441356
3626.6028,6.154810270825933,25.12192597124891
3627.437,6.116466984696884,35.90373074069317
3628.2734,6.081801964391659,38.5617965579108
3629.1082,6.0558129712793445,34.247331506814085
3629.945,6.038683475193653,32.836821281052025
3630.78,6.027465227401731,27.469612822635217
3631.6174,6.017568578669181,30.31137136700061
3632.453,6.004660890507697,26.985436238554904
3633.2883,5.986287021385491,27.535586596611605
3634.1262,5.9634084997146255,28.482490920725994
3634.9622,5.940138321768942,36.074539537965926
3635.8005,5.920207140158161,28.20111119364085
3636.637,5.904040988670695,29.54407084464388
3637.4756,5.888088008657435,28.30507285213565
3638.3123,5.868592389792434,27.232346189921724
3639.1492,5.845114968888154,26.040147178728027
3639.9885,5.821243344029558,29.849948112283784
3640.826,5.802109200738404,31.962582293477272
3641.6653,5.790798993866786,42.23262229458312
3642.5032,5.787273837127746,41.229788211216324
3643.343,5.788539361288618,35.53648548372535
3644.1812,5.790124477710066,28.489955547489178
3645.0195,5.788183276436617,31.60833432909199
3645.86,5.781603954567652,25.103809864608074
3646.699,5.772755451216933,29.826774936444185
3647.5398,5.765599696654897,34.184779447895224
3648.379,5.762688217362511,33.30341052207703
3649.2202,5.763099065238973,23.750801922165707
3650.0596,5.763154557624266,34.31792195242173
3650.8994,5.758845879925008,26.83640209491404
3651.7412,5.747973321752459,28.94277943468291
3652.5813,5.730997754312215,33.67068987452478
3653.4236,5.710428969617244,34.518312019896356
3654.2642,5.690407869819096,37.67371527724697
3655.1067,5.675594761785157,26.034939390118005
3655.9475,5.6700301771308315,41.06116887634583
3656.7886,5.674544046553049,35.2353395349228
3657.6318,5.685160486214721,36.520570523362316
3658.4734,5.694100705287463,27.92611040603685
3659.317,5.6943021710480535,30.09715560196253
3660.1587,5.683680264582596,30.89600779019148
3661.003,5.665709052785757,35.186116513948015
3661.845,5.6465409781277085,33.00557478946946
3662.6875,5.63151260188358,40.616957538875816
3663.532,5.6246090118621295,24.295076863464868
3664.3748,5.628758586663804,33.945719117341106
3665.2197,5.644600351245602,29.69295595842488
3666.063,5.668166128050109,26.64183854296762
3666.9084,5.69126560071069,26.335601955101918
3667.752,5.705409906861649,30.128080922490057
3668.5977,5.707636422515958,34.70059251168176
3669.4417,5.701825734643464,30.523050619712482
3670.286,5.694794591728431,39.007936357957924
3671.132,5.690478726281482,34.33723758472358
3671.9768,5.68784249099038,30.33594684469194
3672.8235,5.683587497041781,31.482364996054063
3673.6685,5.676078944414436,37.579377720258606
3674.5156,5.666198916048009,32.62527063777448
3675.3608,5.655747049222387,32.48499066993501
3676.2063,5.6456698413771615,27.84474132811559
3677.0542,5.635930534122323,29.733264317164082
3677.9,5.625985062632422,31.325178472448105
3678.748,5.614957491138665,32.958073536297356
3679.5945,5.602488080987093,32.53811232993729
3680.4429,5.589399795048158,38.19650379159735
3681.2896,5.5781265776374305,36.426170207661116
3682.1365,5.571368582180686,29.94784650883958
3682.9856,5.5703621840560915,34.870534016393265
3683.8328,5.573816450212946,47.31636023505529
3684.6824,5.578560984829422,27.73426158291001
3685.53,5.581181834260373,30.74915791585007
3686.38,5.579515781488557,34.13378364216851
3687.2278,5.573199427918555,38.58345677865098
3688.0762,5.563551549866314,24.925292804985133
3688.9265,5.552984598646314,43.175173089090826
3689.7751,5.544153875634658,36.95129599560295
3690.626,5.538974039212765,33.97630006836839
3691.475,5.538475865103086,27.481603584868687
3692.3264,5.542769368229848,47.14414194887805
3693.1758,5.551032718765092,34.05157977637012
3694.0254,5.5616347918926365,31.271623875532715
3694.8772,5.572378916922698,33.21908803480252
3695.7273,5.580542583846022,37.452851425195455
3696.5793,5.5833193886346075,33.06017275644675
3697.43,5.578957177324678,33.16525033270551
3698.2825,5.568401664717708,40.605776299126724
3699.1333,5.555154403090369,36.54684195809182
3699.9841,5.542629519063182,31.648212415320007
3700.8374,5.531888820963362,33.76562496752346
3701.6887,5.5218486764776245,31.618010342692607
3702.5425,5.510783030065866,37.17769029659063
3703.3943,5.497690066012178,41.60234624931397
3704.2483,5.482141772365275,29.926343207313053
3705.1003,5.464483016631004,33.24755359260904
3705.9526,5.445575010158769,36.34501192073175
3706.8074,5.426359469886766,36.80874885821924
3707.66,5.407126176376582,29.951020509320468
3708.515,5.387044710992779,38.40699041274442
3709.3682,5.365825490675221,37.68103783624145
3710.2234,5.344824222732984,51.17728313167976
3711.0771,5.3273400934314825,42.657910205561855
3711.9307,5.3161373136795405,47.70816389612226
3712.7866,5.310875729216572,35.97360374808935
3713.6409,5.30750067198804,40.164098323315486
3714.4973,5.300842855800781,36.76451838981777
3715.3518,5.288927722672815,28.893058810011507
3716.2085,5.274827124961262,45.65063872374652
3717.0635,5.264728116548786,35.70394233094413
3717.9185,5.26334912382138,45.01740008483536
3718.776,5.271130156179218,40.509634282727475
3719.6313,5.284298014721606,36.41731277370478
3720.489,5.297285803274738,39.55067652573655
3721.345,5.304965753069795,46.667452745621006
3722.2031,5.304679591898183,37.552556555157395
3723.0593,5.2974688506887375,35.82073677537374
3723.9158,5.288212362428605,37.19984165495529
3724.7747,5.2832499996802476,46.38016373672365
3725.6316,5.286255320911491,32.37472069246822
3726.4905,5.295435504660303,40.63496421783314
3727.348,5.304868098277286,44.0513599267111
3728.2073,5.308731604441314,38.20707497765693
3729.065,5.304424177841949,39.45714103729572
3729.9229,5.292973076811108,36.34570195743894
3730.783,5.277567074023088,40.28082965648769
3731.6414,5.262395648259614,32.86331841367885
3732.5017,5.251420959926048,39.575573834355666
3733.3604,5.247445710883773,43.256339186017854
3734.2214,5.250758356012788,46.515142128808364
3735.0803,5.258708603792161,36.72395649210562
3735.9417,5.266434945258289,32.845964994271206
3736.8013,5.268501359231915,37.02430394982018
3737.661,5.261465475934683,30.611525176196665
3738.5227,5.245866454702467,43.015940167697025
3739.3828,5.22657471340769,30.36791047456462
3740.245,5.2098231475635215,43.115655434093256
3741.1055,5.199461789588343,37.769302386236404
3741.9683,5.194527547209909,38.78288912462618
3742.829,5.190923497643039,35.84035712670319
3743.69,5.1848139628109715,31.106065610722677
3744.5532,5.175112999553526,38.44922086354461
3745.4148,5.163431234914229,34.055366089056434
3746.2786,5.15198495268589,35.02092668474794
3747.1404,5.1420322627782635,38.176655794680364
3748.0044,5.133531895862705,38.08096282385968
3748.8667,5.126737754747429,40.93151181555895
3749.729,5.123340885022066,40.37766926349374
3750.5938,5.12594457843163,40.42089263539558
3751.4565,5.135627769186022,42.31465456028267
3752.3215,5.150145695165076,36.5890578535738
3753.1848,5.164527176790086,26.802994037625695
3754.0503,5.174307079413764,39.1235386102041
3754.9138,5.178117094507086,52.08143773369457
3755.7776,5.178126647097445,39.54012837548341
3756.6438,5.1775578547622265,49.76627764669597
3757.508,5.177943028710497,41.21592577934648
3758.3745,5.178418614620123,35.563614923640365
3759.239,5.177327195901576,37.98332156674531
3760.106,5.173983529336049,48.76116626721972
3760.971,5.168934313700599,41.685520499279896
3761.8362,5.162949418461236,41.84365438334363
3762.7036,5.156127692506215,38.41264664849666
3763.5693,5.1477618456314245,46.44765189756126
3764.437,5.136860112347438,37.70591329660136
3765.3032,5.123432179220857,39.270715104836846
3766.1714,5.108908756765206,45.486790493795304
3767.0378,5.095468686224099,39.43253798110149
3767.9043,5.0841870353718,41.96080913300744
3768.7732,5.074531045854917,39.14325731898507
3769.6401,5.06546371814632,33.76723072974812
3770.5095,5.056524489683517,46.62434946071755
3771.377,5.0479916881937985,48.630217746661074
3772.2466,5.03965141187211,49.34188273712424
3773.1145,5.03041195905831,55.31672730624261
3773.9824,5.01915848769725,40.11161035785117
3774.8528,5.006621872392051,42.06937338584928
3775.721,4.996148193543928,45.67052201557808
3776.5918,4.991612507464785,44.01582405683187
3777.4604,4.994661089601816,42.99270097535742
3778.3315,5.003661044494258,37.23806200214151
3779.201,5.0156631968390295,42.86188022679293
3780.0703,5.0290625641685684,41.777761090810685
3780.942,5.043969402499808,45.49136477964967
3781.8118,5.060431215029132,43.59609374236115
3782.6838,5.07721735385831,41.48663055390105
3783.554,5.091740606627955,49.101072252119515
3784.4265,5.101610140339523,37.59202879985822
3785.297,5.105224564199441,28.802389237250424
3786.168,5.101916269039505,39.04695407029177
3787.041,5.0914865296454845,34.478024867591394
3787.912,5.074392587621874,42.17697859660819
3788.7856,5.051822761399101,41.229633869621445
3789.6572,5.026121818012318,42.50630396030492
3790.531,4.9999018434385185,53.028615427364414
3791.403,4.9753234023021,37.8122524643697
3792.2754,4.952352455574805,39.01254660101356
3793.15,4.9287826466227775,43.89596971042351
3794.0225,4.90215468808522,44.69718268050892
3794.8972,4.871855301380303,46.52346915270357
3795.7703,4.84060629631158,48.272918157987135
3796.6455,4.812519216876784,42.42657452941799
3797.519,4.79113545560993,48.39385178940347
3798.3926,4.777517329234998,51.28003714375045
3799.2686,4.770837183897793,39.65928720830065
3800.1426,4.769710996304867,58.85507127359094
3801.0188,4.773140068402625,49.665159609536246
3801.8933,4.780630147326829,52.05203772824427
3802.77,4.791656043130845,48.32149655414335
3803.6448,4.805111050758847,43.70753478002938
3804.522,4.819919697509148,52.0197877122112
3805.3972,4.835670101518069,37.810001253816914
3806.2727,4.852986263300219,58.64948501392358
3807.1504,4.87230763286238,44.17552590541037
3808.0261,4.8926721202637165,39.084539252040315
3808.9043,4.912461142274112,47.334554545850246
3809.7805,4.930392821858403,46.29895020767752
3810.659,4.9464352323586995,44.354910964801334
3811.5356,4.960556751253941,44.42239897984393
3812.4126,4.971961855374632,37.410995015794626
3813.2917,4.979326104691582,43.92439421141431
3814.169,4.982469737466198,37.13773523423234
3815.0483,4.983704915766732,41.83706212981326
3815.926,4.9867496732418575,34.679846679113425
3816.806,4.993813017855585,45.61090042901372
3817.684,5.003145030480254,44.940656833295655
3818.5623,5.009729053958181,42.044122317501625
3819.4429,5.008303553952174,45.51558495202177
3820.3215,4.996216977534045,38.09780936427266
3821.2024,4.973836528503128,38.307363518748176
3822.0815,4.943269671683214,44.19249311583819
3822.963,4.906372183093451,45.372281434887554
3823.8423,4.86476051904721,50.31666339398134
3824.722,4.8195449576383425,50.381324045908755
3825.604,4.771806931286465,46.45989705465275
3826.4841,4.723017130741578,48.605106703199084
3827.3665,4.674455485498073,48.89188723693505
3828.2468,4.628357669285952,49.08988414603148
3829.1296,4.586240864795097,59.92346794264407
3830.0105,4.5481367804496475,50.84786919727389
3830.8916,4.511244186788259,64.42788342686417
3831.7751,4.472201247605707,53.42539533913909
3832.6565,4.430525933518791,55.83354309214713
3833.5403,4.3892618049035415,51.576041003016144
3834.4224,4.354093554284227,71.83424982592922
3835.3064,4.329516683210733,55.93215890944275
3836.1887,4.317432123443031,60.031981161816034
3837.0713,4.316925888139368,62.25215625909959
3837.956,4.326165067334732,51.608570685070205
3838.839,4.343938001835885,71.3534091265486
3839.7244,4.370450427426359,59.77883905341833
3840.6077,4.406088811138267,59.29040048510257
3841.4932,4.450333422641465,58.57241551906869
3842.377,4.500326491166861,46.73150456241535
3843.261,4.552283832474071,65.25379566056702
3844.1472,4.602958914687625,52.150063273888236
3845.0315,4.6506997027032915,39.717304438276884
3845.9182,4.696385865837564,36.73792921214512
3846.803,4.741256236571105,45.65064368444429
3847.69,4.786176850566089,42.797066975554024
3848.5752,4.829934483465829,46.24111824534525
3849.4604,4.870396930802055,48.571121862801824
3850.3481,4.90558899602388,40.77520876398982
3851.234,4.934662620891976,42.750190110590296
3852.122,4.958685545026262,42.17597255750941
3853.0083,4.979050002669294,47.2640701443594
3853.8967,4.996581639029859,41.86397839134755
3854.7832,5.010513708976806,42.54204635052028
3855.6702,5.019420644285832,39.94300328223271
3856.559,5.022580124904549,39.138476746005104
3857.4463,5.021542772491189,41.34023072754589
3858.336,5.020305088733306,40.722518931798064
3859.2234,5.023272658234168,45.84763386187406
3860.1135,5.03218815095421,39.75038151571569
3861.0015,5.044478751775299,42.40386688609824
3861.8896,5.054904546276824,37.78288836605157
3862.7803,5.058703235638529,43.94793597439143
3863.6687,5.053863182163944,44.455040795444845
3864.5598,5.04113645597544,40.79897111257202
3865.4487,5.022640084618061,36.77352663152763
3866.34,5.000032894565818,45.32987995996918
3867.2297,4.9740686645682874,38.54795110902593
3868.1213,4.94434954599243,49.39099987627556
3869.0112,4.910642550570819,41.959458118841496
3869.9014,4.873521087182961,43.57138104562332
3870.7937,4.834990337108849,44.27598609494363
3871.684,4.798003786616311,50.08765232588119
3872.577,4.764035219785827,42.926491787508276
3873.4678,4.732363592398067,42.88277060548996
3874.361,4.699896593074407,38.07169113531233
3875.2524,4.664073309803913,35.140441591332134
3876.1438,4.624200010538521,50.3353862856401
3877.0376,4.581307671880317,45.17283695928997
3877.9297,4.536543165844383,45.84594250256588
3878.8237,4.4890411019388905,51.40092709416215
3879.716,4.437128529177642,53.395796881619944
3880.6108,4.378989985248129,49.520584485752664
3881.5037,4.314660237592186,50.02210611567904
3882.3965,4.245196131891659,53.14254993294642
3883.2917,4.172725323477558,64.32163959348317
3884.185,4.100614725298465,55.52958945755728
3885.0808,4.031029362218708,70.48990740981016
3885.9746,3.964603957406643,72.75367786831245
3886.8706,3.8985589942207706,64.517583761162
3887.765,3.830345051179708,73.82744713650449
3888.6592,3.7610138484473135,75.7652647063072
3889.556,3.6981892422955536,74.72585295139966
3890.4507,3.6541983681667856,100.27086031957545
3891.348,3.6387757266029603,98.76531699732358
3892.243,3.654467867967338,78.88060540312043
3893.1406,3.6961018300830095,87.97003315333534
3894.0361,3.754721132497212,75.5263882770993
3894.932,3.822881892064533,85.80214505986783
3895.83,3.896418839938955,69.36443028338564
3896.7263,3.9730071811535232,79.60402612391587
3897.625,4.051541346479327,69.02338398099836
3898.5215,4.129323828792938,59.866958321165725
3899.4207,4.203912326036957,70.48175361309704
3900.3176,4.272983587162144,59.468377886806536
3901.2148,4.336911283782199,57.52703583235339
3902.1145,4.397449472573705,62.677644784216334
3903.0122,4.455508307470062,53.29010512185598
3903.912,4.5110532033379345,48.58666109856582
3904.8103,4.562729274883808,54.09531938673076
3905.7107,4.610425311216817,42.513745113220644
3906.6094,4.655313286823598,47.71686993769721
3907.508,4.70021022540602,49.75660506385034
3908.409,4.74803856960734,45.64220188591495
3909.308,4.800124746120042,44.14213255159478
3910.2097,4.856287528453859,42.30724904705114
3911.1091,4.914192281366635,42.73568317955102
3912.011,4.971472862224574,44.091916229771186
3912.9111,5.025507679680769,37.93737804065568
3913.8113,5.074646128478704,36.52820322620847
3914.7136,5.117622996153402,40.84932232582282
3915.6143,5.153089341321663,41.50697638557676
3916.517,5.180433355171001,43.57525072300454
3917.4182,5.199712083587581,41.23246367040808
3918.3215,5.212508999163542,35.99176690155871
3919.223,5.221312848283345,37.97209317967193
3920.1245,5.228928482154007,34.247827219240044
3921.0286,5.237623437367578,40.230925506913735
3921.9307,5.24879230619128,35.82019783175897
3922.835,5.263051565663101,37.35832430360695
3923.7373,5.279863401187278,35.36103984941896
3924.642,5.2977245480072614,36.61080711124643
3925.5452,5.314367924939873,42.56828063646776
3926.448,5.328040242633172,42.66628453893139
3927.3535,5.338095115030198,42.81198702990155
3928.257,5.3448106846823284,37.467301068381246
3929.1628,5.348988826259345,37.72840342710115
3930.0667,5.351292648579216,37.50316081688796
3930.9731,5.351961963355161,40.08074902024676
3931.8774,5.350588147717195,41.42647780791303
3932.782,5.346332197424926,35.9624765501251
3933.6887,5.338321931994524,36.30938835096866
3934.5938,5.325934094099995,40.640113909455536
3935.501,5.30856352218722,39.788161377325686
3936.4062,5.285974704678825,37.757798805862414
3937.3142,5.2584754967000595,42.77453183072896
3938.22,5.227623230577298,41.9865636062846
3939.128,5.195030134719896,42.413071188442004
3940.0342,5.1618464805682756,37.14669948396429
