wavl,flux,ivar
3566.9744,1.215976451947711,148.9685260233047
3567.795,1.2136169473601401,129.48384172114197
3568.6177,1.2094229247332762,126.30666098073208
3569.4385,1.2047212282781197,144.6231824987205
3570.2617,1.2005944044909795,121.3121700926105
3571.083,1.197671587047021,145.9445165641646
3571.9065,1.1961227825194312,127.20556590836694
3572.7283,1.195849298784479,158.12187315031787
3573.55,1.1964383807022994,151.3620948324916
3574.374,1.1971994741751288,135.58792402605494
3575.1963,1.19745901271819,121.68912432232958
3576.0208,1.1970334075136932,186.75638962679707
3576.8435,1.1963573093757336,130.0721773378146
3577.6682,1.1960770309201874,167.47253411377804
3578.4915,1.1964936950912142,150.50762928685157
3579.3145,1.1973232546096946,150.69948573509924
3580.14,1.1979041056805317,156.25220899582683
3580.9636,1.1976175689024613,186.21821105086377
3581.7893,1.1962858479406984,147.74734233673232
3582.6133,1.1942917251422187,123.60720334902379
3583.4395,1.1922897260766725,130.5341460008901
3584.264,1.1907799344851175,113.84849097496999
3585.0884,1.1897978872627666,123.06694899207166
3585.915,1.1890294200957037,184.74228508446075
3586.74,1.188135256995951,132.44223600164216
3587.5671,1.1869705264005486,147.11994235727443
3588.3923,1.1855768375902132,154.19570166684593
3589.22,1.1839951766158852,161.25489501081904
3590.0457,1.1822306922159234,117.04891401229668
3590.8716,1.1802814629872704,157.53863583333668
3591.6995,1.178138084175446,129.41006793650908
3592.526,1.17567760139215,146.1576507286588
3593.3542,1.1726338344977518,169.5966180668772
3594.181,1.1689064833753189,140.52005000597043
3595.0098,1.1648119738842921,153.9207066152579
3595.8367,1.1611726743087327,136.35179846461256
3596.6638,1.1589105908991815,150.58946443688117
3597.4934,1.158569787190488,169.89013104978534
3598.3208,1.1598503748931706,162.7279521351348
3599.1506,1.1615310524750098,133.24758750544467
3599.9788,1.162029552201762,157.19239854452604
3600.8088,1.1605406938297353,141.7347929449086
3601.6372,1.1579043450516586,158.89051223882038
3602.4678,1.1562186599391726,139.29501276849368
3603.2964,1.1572683827461165,119.34958490322475
3604.1252,1.161065597096495,127.10968284365975
3604.9565,1.1660126291023967,149.4120852221055
3605.786,1.1703009312185262,162.99416739094318
3606.6172,1.173319093038556,214.2977741807424
3607.447,1.1757130774364852,156.96133875566073
3608.2788,1.1785879886965336,159.59073148345772
3609.109,1.1823998710091255,170.22665896072775
3609.9392,1.1864049888426,136.1223484081729
3610.7717,1.188887714828653,139.27287633672964
3611.6023,1.1881922111371697,138.40105694655693
3612.435,1.1839234059130999,158.61427530497272
3613.266,1.1773320271386287,173.12605250146808
3614.0994,1.1705078513579346,163.51707868667214
3614.9307,1.1652882642752715,161.7063280005709
3615.7625,1.1624319622417825,132.04679590221872
3616.5962,1.1617538316188958,141.2928195939332
3617.4282,1.1624817306825939,164.53507100165857
3618.2625,1.1635371856094838,148.28872259581888
3619.0947,1.16378511268262,161.16889152272728
3619.9292,1.1624737089518955,159.95590222742
3620.762,1.1596405296486614,168.288696016338
3621.595,1.1560508155340457,170.25896840002585
3622.4302,1.1526547446769286,150.17562838388525
3623.2634,1.1500151276012403,168.65150641580772
3624.0989,1.1480435673134355,151.5100939681738
3624.9326,1.1463038784738766,154.4844575714436
3625.7686,1.144414718504964,133.64627459295716
3626.6028,1.142414494315441,144.24675643024307
3627.437,1.14075844283138,150.98455254415586
3628.2734,1.1400529361046103,170.30083378800535
3629.1082,1.1406523550256022,163.65445414392414
3629.945,1.1423829318377603,143.44502861285642
3630.78,1.1445253887501259,138.93230901848722
3631.6174,1.1460463558048553,149.09069695914263
3632.453,1.1459159267355445,139.2082411447247
3633.2883,1.143571416606113,120.21882850965373
3634.1262,1.1391861027815333,156.68990594495077
3634.9622,1.1336245222680923,175.88244549312486
3635.8005,1.1278159761850408,146.82144160739213
3636.637,1.1222807996919764,172.8148194493327
3637.4756,1.1168945456335224,184.03328073696042
3638.3123,1.1114310514274937,151.504059133
3639.1492,1.1059982715188401,156.80605938093024
3639.9885,1.1011690535476928,142.03943348144028
3640.826,1.0976058521555276,175.87989156965077
3641.6653,1.0955409662586988,156.93090458743302
3642.5032,1.0947927366958226,161.4914699290318
3643.343,1.0949583673754395,148.28911496616755
3644.1812,1.0955665691171157,177.2043857618255
3645.0195,1.0960576536259128,153.11830230146904
3645.86,1.0958745459600314,165.16216500274007
3646.699,1.0947443794898213,176.74497988161787
3647.5398,1.0928514582243625,153.79035227513342
3648.379,1.0907257921017386,165.11738812068967
3649.2202,1.0889341449858263,157.53812902366445
3650.0596,1.0879213627921733,161.5881219432155
3650.8994,1.0879057478838028,164.81190023023484
3651.7412,1.088856205042392,180.0148677621512
3652.5813,1.0904243316884104,161.11858882993525
3653.4236,1.0919530590217272,156.28939543999292
3654.2642,1.0925653209806128,172.0188061250852
3655.1067,1.0914839054150947,148.17319110895036
3655.9475,1.0884390819020173,149.72732092449456
3656.7886,1.0838925230916834,143.26454724245377
3657.6318,1.0788106746475963,171.35099047964866
3658.4734,1.0741173541242526,185.3577911656196
3659.317,1.0701410397087179,162.84776019718723
3660.1587,1.066812899970261,132.64845969934694
3661.003,1.0641819679351134,160.9341774769768
3661.845,1.0628357577948224,174.67891796014496
3662.6875,1.0634790261738631,174.7693023078097
3663.532,1.0662072034372452,163.1547408911718
3664.3748,1.0700861612515842,152.7181041495555
3665.2197,1.0735594695739745,151.32218460923167
3666.063,1.0751388313894261,208.77111494620073
3666.9084,1.0740596527833912,182.45940711986242
3667.752,1.0705428535918118,177.71580403773748
3668.5977,1.065751220589965,175.2226601101204
3669.4417,1.0614634728014354,170.08696982788683
3670.286,1.059254507800245,155.92137551969384
3671.132,1.0597616226510742,202.45924017769312
3671.9768,1.0623956592994375,172.98020089361057
3672.8235,1.0658255375080177,164.91182241438267
3673.6685,1.0687558547363192,171.58264788397045
3674.5156,1.0704792203792473,201.8372471419003
3675.3608,1.0708088403056049,202.50268222252802
3676.2063,1.0698613251597466,167.71011766728108
3677.0542,1.0678788738994733,156.5482640569357
3677.9,1.0652136412176978,186.02085777092995
3678.748,1.0622272431637558,160.88234111818403
3679.5945,1.0593138922957326,165.0090496311746
3680.4429,1.0569154817039983,222.31338330597163
3681.2896,1.0556314148058776,180.85817611157432
3682.1365,1.0561260684098372,177.76679852803153
3682.9856,1.0591164038926562,231.97306863521263
3683.8328,1.0654432965815939,212.5380967349761
3684.6824,1.076129816696993,160.3837461141918
3685.53,1.0914424132052358,180.8610794026843
3686.38,1.109543426279416,167.0989350683985
3687.2278,1.1253794026678914,195.2533968461325
3688.0762,1.132761922954233,232.68557146698518
3688.9265,1.1281496306327186,159.68312465202314
3689.7751,1.11367810722971,201.47593028894832
3690.626,1.0958379176281656,167.94329707355087
3691.475,1.0813086355176509,157.47749253723913
3692.3264,1.0730590871667984,185.52433391097497
3693.1758,1.0702330806983826,166.45077330783155
3694.0254,1.070113988610488,184.99116873230682
3694.8772,1.0704289055207643,150.42550737684468
3695.7273,1.0702129872565853,170.72642855174624
3696.5793,1.069534054636837,168.30460882294088
3697.43,1.0687943506491593,177.545390390149
3698.2825,1.0681767420477233,174.97609433350888
3699.1333,1.067502901692399,162.3770985818608
3699.9841,1.0664763694139745,156.9505877121075
3700.8374,1.0650786925588034,171.6868561048375
3701.6887,1.063671407668738,172.38307814837765
3702.5425,1.0625640794546578,190.55879178525737
3703.3943,1.0615618029755727,179.64595742273212
3704.2483,1.06000040354535,156.5757661945111
3705.1003,1.057383921922204,150.47410185349727
3705.9526,1.0538769202306182,172.18293749150803
3706.8074,1.0501921105239265,177.92235226384796
3707.66,1.0470105026940675,201.12567618852123
3708.515,1.044378713497075,178.07702023092153
3709.3682,1.0417816787143215,178.47968037930548
3710.2234,1.0386482404405286,169.4386265837055
3711.0771,1.0351597144470135,171.95291411848754
3711.9307,1.0326714468160534,197.36082480971646
3712.7866,1.0335459170883952,174.38759208466948
3713.6409,1.0401537364851634,170.88906031621568
3714.4973,1.0532920798227667,172.57862145191882
3715.3518,1.070543879019354,212.7686063000978
3716.2085,1.0864997306519095,180.73410785037004
3717.0635,1.0949429670509514,93.48255715085782
3717.9185,1.0928822708495547,154.33256934959158
3718.776,1.0824002878724415,171.48499827371302
3719.6313,1.0691655954009553,186.19285420662925
3720.489,1.058320195432642,175.91463926205986
3721.345,1.0518930333532568,164.63118985853896
3722.2031,1.0487815509650815,154.2400146638792
3723.0593,1.0469046405476188,175.33019843282133
3723.9158,1.0448901652833804,188.1494581568626
3724.7747,1.0425436462998663,147.82736959120186
3725.6316,1.0403419107847287,194.89527534448638
3726.4905,1.0386933496107889,175.81276980852908
3727.348,1.0375983026420394,211.1772807886862
3728.2073,1.036695838231086,197.25214130263527
3729.065,1.0356511549278644,155.8661575146888
3729.9229,1.0344462370175236,205.52046096570714
3730.783,1.0333575986036594,218.5568107078377
3731.6414,1.032698906026812,191.92462376725337
3732.5017,1.0326097532538334,183.91195067738488
3733.3604,1.0330386853667088,187.8160579122145
3734.2214,1.0337288387408898,208.6173625093796
3735.0803,1.0341731247419326,171.58585384074794
3735.9417,1.033742478495553,151.978768576962
3736.8013,1.0320265465820253,163.08592192552882
3737.661,1.0291427534415347,178.65665767864243
3738.5227,1.0256962918169414,195.0434975568955
3739.3828,1.0224591052513337,180.16338068266361
3740.245,1.019931826816863,166.226841205103
3741.1055,1.0182397840111652,196.47303995770073
3741.9683,1.0171498189585164,181.14273378303324
3742.829,1.0162429976547196,185.17563856435632
3743.69,1.0150348050362419,193.20901135511153
3744.5532,1.0131728497564751,162.73336165837387
3745.4148,1.0106882872509113,271.294169968888
3746.2786,1.0080777260711937,187.18509362599224
3747.1404,1.0061634114881366,182.70326177994284
3748.0044,1.0056128408747973,185.5772198040965
3748.8667,1.006548544265584,211.8969886513913
3749.729,1.0084336589844383,184.6143916589394
3750.5938,1.0104104669028382,270.78113696974066
3751.4565,1.0118332038626205,164.16754458049243
3752.3215,1.0127170826750054,218.69753495532558
3753.1848,1.0136477474045689,238.7101621295307
3754.0503,1.0152500312319834,189.87574049440124
3754.9138,1.0175347673662536,195.20164088836313
3755.7776,1.019778100805581,186.35745167641164
3756.6438,1.021030481860235,147.75347943098274
3757.508,1.0208861381432504,213.75892243560216
3758.3745,1.019861159850686,209.052583139533
3759.239,1.0190058630100933,199.62054179530392
3760.106,1.01907587638597,205.01466520947142
3760.971,1.0199498127680275,165.7357490295015
3761.8362,1.0207280513368497,195.8577990178387
3762.7036,1.0204334537162745,184.4465221419271
3763.5693,1.018775455444384,174.90856469223357
3764.437,1.0163636427250118,205.77904737116958
3765.3032,1.0142211942155819,167.7209984890919
3766.1714,1.0129272346467155,219.48584474638844
3767.0378,1.012184908460329,231.57258064324066
3767.9043,1.0110506305386282,196.69363008027946
3768.7732,1.0086433324174187,194.4230029051655
3769.6401,1.0048265625768191,223.8299737248635
3770.5095,1.0004161838747028,170.98375671042993
3771.377,0.9969517045669785,182.00871997719793
3772.2466,0.9958470065194373,299.63626358042353
3773.1145,0.9976043116705147,211.70868576919497
3773.9824,1.0014899534952975,166.13851251261738
3774.8528,1.006043565666115,182.33453875263294
3775.721,1.0098244704089974,212.26912004032263
3776.5918,1.0119979438466624,156.8149844500091
3777.4604,1.0123165148761657,196.32170539504182
3778.3315,1.0110783968352863,186.45585137134768
3779.201,1.009070671331898,222.06706327591772
3780.0703,1.0073856850241583,208.08889273969868
3780.942,1.0069775664253315,176.51394795050248
3781.8118,1.0081776737385983,201.98247948694458
3782.6838,1.0105928574956478,185.5689171925701
3783.554,1.0134409847449797,165.48543710801653
3784.4265,1.0160142852740655,229.15414561118723
3785.297,1.0177649960803365,201.588495936388
3786.168,1.018277455606066,189.64083489093335
3787.041,1.0172439809076765,196.12683143064376
3787.912,1.0146211413426394,201.46175050971036
3788.7856,1.0106622130057115,180.69168625423958
3789.6572,1.0058470091143332,187.19807912909926
3790.531,1.0006475531287333,192.8357622484767
3791.403,0.995567393767615,192.23422440346513
3792.2754,0.9910682012979897,228.17655137395545
3793.15,0.9874979985682661,198.45680934407696
3794.0225,0.9848976263659096,206.8707010009892
3794.8972,0.98287629322926,205.84485326559889
3795.7703,0.9808984940777838,198.41211683615998
3796.6455,0.978658338543191,198.08167745169732
3797.519,0.9764281509191226,207.5215431589913
3798.3926,0.9749736501126951,182.07923008314998
3799.2686,0.9751130412811946,215.73081862357344
3800.1426,0.9771114029620205,192.0322114972657
3801.0188,0.9804431470145918,208.80688001769994
3801.8933,0.9840979575208069,231.89957041165007
3802.77,0.9872399746166364,187.95686499696976
3803.6448,0.9895240945112322,189.78950799075204
3804.522,0.9911202681611189,218.0502964151671
3805.3972,0.9924330942732138,191.72540229676187
3806.2727,0.9939107499295863,195.11045658056133
3807.1504,0.9958698985489046,230.8215910272856
3808.0261,0.9983674038596512,182.74926763986275
3808.9043,1.0012253592007896,203.91784271694974
3809.7805,1.0041403522648704,237.42262876314177
3810.659,1.0070034398150232,183.16126193130546
3811.5356,1.0100023997014844,191.44937531819983
3812.4126,1.0135016280774625,184.06193271429487
3813.2917,1.0175874157739848,174.35795977994823
3814.169,1.0216801576709433,195.19873419214898
3815.0483,1.0247171422147145,170.13646728108228
3815.926,1.0256809474099973,187.7539126683295
3816.806,1.0242351728434695,217.6898845463314
3817.684,1.0207864929746084,187.8250433325543
3818.5623,1.0160392318701754,189.13652993014168
3819.4429,1.0105238482206398,175.25789289724742
3820.3215,1.0045697399496827,173.78982446804764
3821.2024,0.9984237633568658,206.89225936186773
3822.0815,0.992526714045718,171.95994405444284
3822.963,0.9872964379248343,210.2510513316565
3823.8423,0.9829332287448451,201.7011220868002
3824.722,0.9791574084302578,220.21525945871275
3825.604,0.9754222125376254,195.8318327666344
3826.4841,0.9713408443753272,210.72598715549515
3827.3665,0.9668763934908984,194.6816064862145
3828.2468,0.9622745557455341,228.51668126104423
3829.1296,0.9576214014006653,184.01883620555728
3830.0105,0.9527654998392451,231.21719234984477
3830.8916,0.9474115029301817,226.16140309308014
3831.7751,0.9414532070248881,207.63587253342595
3832.6565,0.9351950521906973,232.68860040410866
3833.5403,0.9292182756710405,225.71061175490243
3834.4224,0.9243625879378421,249.6394966327249
3835.3064,0.9214254832011655,264.2720071184187
3836.1887,0.9209941960579736,264.54864561998863
3837.0713,0.923149985783505,240.47262617606384
3837.956,0.9274221532155617,227.76390379634074
3838.839,0.9329404655046781,207.8158643673279
3839.7244,0.9389231784057932,213.74542119310033
3840.6077,0.9449228114235407,244.8446312976248
3841.4932,0.9509795608434494,204.21953739715687
3842.377,0.9573311132790758,212.51711770816488
3843.261,0.9642991946155349,206.7841447599731
3844.1472,0.9721012335549484,220.40098225746272
3845.0315,0.9806359528985142,203.02901612434977
3845.9182,0.9894627386276198,182.00524458966888
3846.803,0.9976552152540115,216.04517251499888
3847.69,1.004321181071514,210.21449120951826
3848.5752,1.0090358260086627,193.79652863059786
3849.4604,1.0123292051632895,212.12491336150896
3850.3481,1.0154467549999864,165.13246642034437
3851.234,1.0196555923061494,189.87265877623074
3852.122,1.0255795674782924,191.32967374606207
3853.0083,1.0327552307265682,199.32893755255122
3853.8967,1.0399097346752977,169.83088167548686
3854.7832,1.0454290850162444,180.97132984087236
3855.6702,1.04822887179675,178.46225187735786
3856.559,1.0482063635545218,179.77376741863785
3857.4463,1.0462389682008568,177.6819791423977
3858.336,1.0435590659654532,193.38687778292197
3859.2234,1.0410262186960002,209.33768735808187
3860.1135,1.0387644490139925,176.67319002260712
3861.0015,1.03653648081978,162.74845356891228
3861.8896,1.0342642996090263,173.86835114599626
3862.7803,1.0322634679809037,204.8835000179947
3863.6687,1.0309257342864553,201.49694815499137
3864.5598,1.0301789092628713,167.03129116655288
3865.4487,1.029352999234699,169.4078151571413
3866.34,1.027508201560052,187.8900281898199
3867.2297,1.0240453473675564,184.1857669040091
3868.1213,1.0190359869034695,175.69012501153068
3869.0112,1.0131534891042533,189.5543545640916
3869.9014,1.0070956549036256,206.79923069606093
3870.7937,1.001147710545256,201.5264614029908
3871.684,0.9951769908260865,181.94557484321479
3872.577,0.9888488968311204,201.87106860338352
3873.4678,0.9820504137522632,193.03612960744488
3874.361,0.9748238754501255,223.11404690767714
3875.2524,0.9673980078237115,181.81414094860995
3876.1438,0.9599480182114756,219.00793421310598
3877.0376,0.9525212522808586,207.90485493592652
3877.9297,0.9449916390710823,197.33773334653807
3878.8237,0.9369685643216118,206.23678825285106
3879.716,0.9281436257534079,232.61775284845803
3880.6108,0.918370942622855,231.7834245690272
3881.5037,0.9078317359519648,274.0674398654341
3882.3965,0.8966862062991374,236.38317745749538
3883.2917,0.8849913427228914,220.0900568007773
3884.185,0.8728558278374384,233.78864201813366
3885.0808,0.8603838751277514,269.6424078899517
3885.9746,0.8480212171148648,280.22306984696706
3886.8706,0.8363607170362374,269.09963729169505
3887.765,0.8263586224585057,306.10041470097445
3888.6592,0.8190517264581942,298.52740535771414
3889.556,0.8154060626117134,281.4855165925913
3890.4507,0.8159920792697587,306.7858709536495
3891.348,0.820720847456523,286.16517499973855
3892.243,0.8288943519222991,284.97278610565814
3893.1406,0.8396300118660643,284.1886083816004
3894.0361,0.8520619841561666,281.7330351770117
3894.932,0.8656646765351388,254.603863280713
3895.83,0.8800021270273145,292.310031596363
3896.7263,0.89433262013974,231.3543046320752
3897.625,0.9078165131439085,207.33021996351965
3898.5215,0.9196003417847909,219.6599854442319
3899.4207,0.9295718694100293,221.30913625627332
3900.3176,0.9382674113613054,224.94967048999382
3901.2148,0.9467040820551983,221.4248859915908
3902.1145,0.9556734548190413,232.83127717209896
3903.0122,0.9653130065219246,209.71084728817877
3903.912,0.9753899739683434,177.69758349223537
3904.8103,0.9855369449153238,188.83732817572988
3905.7107,0.9956908892246995,186.6625621305436
3906.6094,1.0058758297188255,206.56401664606307
3907.508,1.0161804865745545,175.71526067337174
3908.409,1.026589984878773,174.90047199852413
3909.308,1.036888140221244,162.79808455339366
3910.2097,1.0468627968072002,227.87566389804428
3911.1091,1.0562039305275055,207.09450958588013
3912.011,1.0647590775294562,183.8109839476983
3912.9111,1.0723107965743728,179.35321262415331
3913.8113,1.0786788016476223,148.36469868594983
3914.7136,1.0837538749439422,160.93665634301797
3915.6143,1.0876606030808702,160.56292084976258
3916.517,1.0908617994149734,158.273026569433
3917.4182,1.0938214618810753,174.6382798216773
3918.3215,1.0967326474547976,175.68715942551088
3919.223,1.0994390870480188,134.60144773939868
3920.1245,1.1018137427199979,143.1329660722701
3921.0286,1.1040312517248285,162.406285033924
3921.9307,1.106434962552025,166.24093791867682
3922.835,1.109147366002193,151.59518116058075
3923.7373,1.1117709061510368,166.6697182544407
3924.642,1.1136533831693516,173.19590166329127
3925.5452,1.1143512441424384,172.43120551290662
3926.448,1.114020890936542,147.11408475184373
3927.3535,1.1133161919485497,157.60465457753838
3928.257,1.1129516046917798,170.58544681700712
3929.1628,1.113223634895045,168.2018035719584
3930.0667,1.1138986045775359,146.98811661651814
3930.9731,1.114494861400798,163.36908023746847
