wavl,flux,ivar
3566.9744,8.88762524508322,30.04221319263491
3567.795,8.871311466164842,30.378447941538965
3568.6177,8.847081769199985,27.97082575328401
3569.4385,8.819893889223597,26.709498042376605
3570.2617,8.794291878736443,27.9391917800114
3571.083,8.772969189046337,27.63957159634975
3571.9065,8.754483364680219,28.49871459173106
3572.7283,8.734929826462091,31.298573434828793
3573.55,8.71177884828209,25.32986230245187
3574.374,8.686980092956619,28.68191090660221
3575.1963,8.66567730093404,29.821210250412086
3576.0208,8.651418299314289,27.289540843391485
3576.8435,8.643937787616458,27.31192250461729
3577.6682,8.640331263270387,29.56926227857081
3578.4915,8.638318915785968,29.827989653732224
3579.3145,8.637290513611182,31.37205812133758
3580.14,8.636937713486716,31.12860172245871
3580.9636,8.63609126174506,29.720910981182953
3581.7893,8.63413008226426,31.57462229616206
3582.6133,8.633583035598802,29.252565140574767
3583.4395,8.64013706658192,36.63592192437761
3584.264,8.658730279877314,31.076371488508965
3585.0884,8.688803042722583,33.84220120586691
3585.915,8.722648750683994,30.216437182345732
3586.74,8.747930270898665,28.581589336076167
3587.5671,8.754140439185521,31.467512103870337
3588.3923,8.737873778994938,29.60023774538574
3589.22,8.704721516377655,33.14855998996179
3590.0457,8.666373223597219,34.2831748230997
3590.8716,8.634151511406007,31.233940323451794
3591.6995,8.614674815057716,31.996165075087436
3592.526,8.608699924444997,28.709064987422167
3593.3542,8.612132245848077,32.03592299339994
3594.181,8.617951638278718,31.4241986033104
3595.0098,8.618345202190953,32.15647656231256
3595.8367,8.607728477982867,28.1219426761531
3596.6638,8.585373298102565,30.831241215489566
3597.4934,8.554668860444249,34.98737387051111
3598.3208,8.519302248803818,29.4810958120544
3599.1506,8.478789133568188,32.16247838935191
3599.9788,8.430170401639225,32.333853159869264
3600.8088,8.372660751725844,31.578766333524555
3601.6372,8.313655843650423,35.51468044827212
3602.4678,8.267663762426832,31.356628863678797
3603.2964,8.250934132877978,35.23766138404035
3604.1252,8.271717970277232,38.59714509928152
3604.9565,8.325418392120627,32.66334560163933
3605.786,8.395656344415144,29.40370619205382
3606.6172,8.463309592368462,32.02826841406348
3607.447,8.513848663918141,34.474204537612444
3608.2788,8.542308981419572,29.461944899772988
3609.109,8.551420831846379,32.074452451327055
3609.9392,8.548103860917825,29.758736204137453
3610.7717,8.53863347755728,31.405580025831625
3611.6023,8.526207629866713,27.254061176596064
3612.435,8.511373628726053,30.220741929197448
3613.266,8.494716256661327,29.422830773796655
3614.0994,8.477771165145285,32.59451961682304
3614.9307,8.462365283883448,34.929177538497626
3615.7625,8.449432020244874,31.36341990816747
3616.5962,8.439931297627043,36.114497094582866
3617.4282,8.43569799125515,30.94660766229297
3618.2625,8.438229795697609,29.840947046700695
3619.0947,8.446660090897874,36.373972003456856
3619.9292,8.457622369979003,31.573356511419927
3620.762,8.467451671697301,34.60544724832077
3621.595,8.474367354077874,29.045993947133685
3622.4302,8.477725461704136,32.99561672616456
3623.2634,8.476175246552444,31.03394160900798
3624.0989,8.467795816726495,30.51540563332999
3624.9326,8.452393761849656,29.942382973123017
3625.7686,8.43263061065161,26.75766075738086
3626.6028,8.412625876464013,36.15661277953001
3627.437,8.39473122568655,33.48521863596441
3628.2734,8.378430722002271,35.78520457862957
3629.1082,8.361974485788226,26.53386673514361
3629.945,8.345022172989145,30.18904237719687
3630.78,8.330881105848212,31.161042696684067
3631.6174,8.325239752710328,34.34069548679938
3632.453,8.332668489611025,42.31467972602318
3633.2883,8.352730428467948,33.60898290718217
3634.1262,8.37960426416014,29.161384426911496
3634.9622,8.404773278915783,37.772169869656224
3635.8005,8.4215961693743,31.124464202779826
3636.637,8.427277791407711,36.35108820735066
3637.4756,8.423292301801881,34.15866489337627
3638.3123,8.413911866590862,30.935734787616955
3639.1492,8.404391409626387,30.070709056859666
3639.9885,8.399102655857067,30.75246097258057
3640.826,8.399786048758353,34.320207419830425
3641.6653,8.404500668331805,32.297649977044195
3642.5032,8.408530558044903,38.17015882002027
3643.343,8.40714369120628,28.122007358968933
3644.1812,8.3982353522518,39.16211744932596
3645.0195,8.382724340917052,31.79991235710155
3645.86,8.362690127285859,31.353259010742793
3646.699,8.339888719410657,31.766286838010743
3647.5398,8.31555774461879,36.61696113342552
3648.379,8.29186133727982,33.5100662019791
3649.2202,8.271553769173222,35.788061357291866
3650.0596,8.257278824839823,31.183848464235634
3650.8994,8.250263908805046,33.06161610914496
3651.7412,8.250323926546423,31.894066800646073
3652.5813,8.255515865757003,32.357080194503865
3653.4236,8.261855234903736,32.3686904743893
3654.2642,8.26425883950509,34.238834267464014
3655.1067,8.259509578457326,32.46737550748399
3655.9475,8.248909764220292,37.23106734938021
3656.7886,8.237902938268434,36.903379752227394
3657.6318,8.232778997594503,29.201587758017606
3658.4734,8.237034612776034,34.74769438694046
3659.317,8.249584293621544,35.256878787042154
3660.1587,8.26527617755045,34.35813404887575
3661.003,8.277447040029717,27.643409227996294
3661.845,8.280976412030054,34.753942964659664
3662.6875,8.275033393276765,37.85761874019653
3663.532,8.262938988219657,29.944210696713697
3664.3748,8.249992457614029,34.65262410380505
3665.2197,8.240357983168446,29.792171610761766
3666.063,8.235557925008182,32.99238916061104
3666.9084,8.23432921258095,31.18296736502193
3667.752,8.233842348220822,36.92908977504868
3668.5977,8.231138547786628,30.469714022939236
3669.4417,8.224769905860965,31.436299626938485
3670.286,8.216102762007655,34.43477715468278
3671.132,8.209192093962077,31.333076371285575
3671.9768,8.20842283155591,33.67539514829446
3672.8235,8.21519034874261,31.742708717269903
3673.6685,8.226645161617647,34.70075543787735
3674.5156,8.23757126478932,32.96296498769371
3675.3608,8.243160250712519,30.48672633389141
3676.2063,8.240797959218638,34.21151631423539
3677.0542,8.229701328108865,32.786036194956694
3677.9,8.210669640754658,31.941466587142266
3678.748,8.18641275075088,41.53562572527847
3679.5945,8.162561135557315,36.90940726307786
3680.4429,8.145810222074662,34.271193676358564
3681.2896,8.140613567663827,34.98278829302306
3682.1365,8.145999609555975,34.576240931365156
3682.9856,8.156639365451369,34.010343940418956
3683.8328,8.166851622622135,37.19351639338412
3684.6824,8.174423317006427,34.6707974555119
3685.53,8.180239663629937,38.35950624105547
3686.38,8.185209829206332,32.23856031357734
3687.2278,8.18785471464199,29.975191765600037
3688.0762,8.185687172943323,37.356096708611474
3688.9265,8.178259093497175,33.11979829438921
3689.7751,8.16838309806749,30.582115706245993
3690.626,8.15970412726271,33.34067517553939
3691.475,8.153387039758837,35.735047190770075
3692.3264,8.146639284864783,38.3846499563484
3693.1758,8.13483290270229,35.8105300944035
3694.0254,8.115097433605953,37.529622927580476
3694.8772,8.088975180506216,31.689373675113043
3695.7273,8.062376077296824,35.22186466109084
3696.5793,8.041984645607206,29.698330863406596
3697.43,8.031710107131042,36.73803188461086
3698.2825,8.030523828398483,38.43419729793127
3699.1333,8.03420200239305,35.6692979667093
3699.9841,8.038652621631762,33.77734688628304
3700.8374,8.041976418840907,38.32049848774155
3701.6887,8.043722099596994,34.6636518350958
3702.5425,8.043232638536228,36.158563106023195
3703.3943,8.039413358807789,35.2668849388056
3704.2483,8.032164300902728,38.34172048119408
3705.1003,8.02338516902583,32.92448688521339
3705.9526,8.015717976510324,43.8440735167256
3706.8074,8.010367610465948,36.88032916850135
3707.66,8.006007938790875,32.79075493777843
3708.515,7.999534137784571,32.88390129612925
3709.3682,7.987997106646352,33.60933837094618
3710.2234,7.969909455864632,30.91496806862547
3711.0771,7.946237875881354,36.98077083515022
3711.9307,7.920557351736444,35.145177691341765
3712.7866,7.8989734022527145,39.09420360945584
3713.6409,7.889307469939804,34.29286996927501
3714.4973,7.898514380224591,39.90955159116319
3715.3518,7.929446315936806,35.80455158882125
3716.2085,7.9775153444538445,40.785895774079876
3717.0635,8.028616152162767,42.918433477691394
3717.9185,8.063448365376628,37.10486688336736
3718.776,8.066676921033444,16.154300403804097
3719.6313,8.036994729800622,38.577422154779946
3720.489,7.9884025628765984,39.19490501140451
3721.345,7.940742126670922,39.232368355063336
3722.2031,7.9064833157658745,42.07970657994884
3723.0593,7.8871054408402745,42.69856472752343
3723.9158,7.877608242926184,33.86252211465511
3724.7747,7.873773666646279,35.34942360078204
3725.6316,7.874206093194557,36.698012894830406
3726.4905,7.878176445097905,34.73851137504896
3727.348,7.883500747907272,41.291477958000186
3728.2073,7.886733247323616,38.349204145477394
3729.065,7.884757482272779,34.40771683788855
3729.9229,7.876178382676978,32.44974791155347
3730.783,7.861249062870285,40.380683385242925
3731.6414,7.841020422123691,36.913686515176494
3732.5017,7.81635765761127,34.67177976891775
3733.3604,7.788791204978745,38.68650339470404
3734.2214,7.761068559354291,39.14356776335422
3735.0803,7.737401927404761,38.36886415907361
3735.9417,7.721136252151036,40.198678812909485
3736.8013,7.713505174600674,39.17175974083556
3737.661,7.7132838121854554,39.34873551911421
3738.5227,7.718444277691887,38.930624598783844
3739.3828,7.727383316263483,46.246881786915694
3740.245,7.738970412664891,41.095957267403996
3741.1055,7.751218401792887,39.005327403467795
3741.9683,7.760671351922491,37.636135063853274
3742.829,7.7629411915087205,37.25845265799269
3743.69,7.754782137386224,35.64313305541468
3744.5532,7.7354097815120015,43.230690256544065
3745.4148,7.706983158436008,44.82436171598489
3746.2786,7.673638705493489,40.50661594188423
3747.1404,7.641072721281661,39.34602418308567
3748.0044,7.614604381086367,41.08084788106872
3748.8667,7.597833655688381,38.010837114520044
3749.729,7.590630229632042,38.68469288804866
3750.5938,7.589447166801393,44.002155358297394
3751.4565,7.58925644329362,41.260418350841405
3752.3215,7.586518220636433,36.62561569726146
3753.1848,7.581381937159507,41.13934269626939
3754.0503,7.57716089635782,40.06039987222014
3754.9138,7.576929968061065,34.97061157722953
3755.7776,7.5787638141538,39.05274433526227
3756.6438,7.571909670215072,35.62470369897999
3757.508,7.534502704014693,43.529694738209486
3758.3745,7.434177997206151,36.26614108287273
3759.239,7.240118258897832,40.00378415893616
3760.106,6.94753230240409,40.38055386417279
3760.971,6.611828793059948,38.33052659516748
3761.8362,6.343138894766713,38.9947843390792
3762.7036,6.255251094639749,61.83632422300096
3763.5693,6.389236751670175,41.903585186450876
3764.437,6.682599014404702,39.3170405184795
3765.3032,7.01382442511885,37.32140545907135
3766.1714,7.283655033804721,39.23014310412613
3767.0378,7.453350182509378,39.427900946346846
3767.9043,7.537618090218857,39.20762477569613
3768.7732,7.568141232221736,38.449188585332394
3769.6401,7.570294170067536,38.95476547398294
3770.5095,7.5584200708567435,38.42741241257981
3771.377,7.540264072604918,42.55457491518636
3772.2466,7.5215796929435275,40.66925177434118
3773.1145,7.507530502563185,40.17321550691484
3773.9824,7.5011626079510005,38.23941019376137
3774.8528,7.502675505208337,36.045876635813926
3775.721,7.510071863410378,42.53864386182116
3776.5918,7.520913939950444,41.62796203724518
3777.4604,7.5332898676488655,36.452061418906204
3778.3315,7.545708254428851,38.23500781775652
3779.201,7.555947705115375,42.65793034789893
3780.0703,7.561575190441304,41.304281479282956
3780.942,7.5619132920385566,42.16389733920637
3781.8118,7.560002434878502,38.011862057228264
3782.6838,7.561769483237459,41.5998204611557
3783.554,7.572143201343581,38.616334679611484
3784.4265,7.591137137754668,40.10352193118989
3785.297,7.612869029005832,41.9686450583093
3786.168,7.629015565810588,34.8481357532093
3787.041,7.633174326137413,46.91945746411848
3787.912,7.623598501299805,40.49084341335604
3788.7856,7.602785305762947,37.932233555905306
3789.6572,7.575164987628118,45.608406121682535
3790.531,7.544120617368995,44.956752731310516
3791.403,7.511393654790866,39.69916430086215
3792.2754,7.47756710724933,39.482784383542935
3793.15,7.44388394809158,40.44802514874174
3794.0225,7.412655803152159,40.22426734620725
3794.8972,7.38502980690065,35.333639944381325
3795.7703,7.360038714737523,41.178073732089985
3796.6455,7.334770246891729,40.455786180077084
3797.519,7.307453529013527,38.163289792119386
3798.3926,7.279505864573309,46.035813420059874
3799.2686,7.2560805247228926,39.67494142263495
3800.1426,7.244155760933334,47.496626640588595
3801.0188,7.248583455484631,45.50342961599273
3801.8933,7.269273111082649,40.95614466880361
3802.77,7.300780375476098,46.14417523785846
3803.6448,7.334454408302807,43.331182664171244
3804.522,7.363286935239085,38.12466892238996
3805.3972,7.385639105463257,45.04088098449126
3806.2727,7.407595681209994,42.08513447458162
3807.1504,7.43977509827852,43.86149940736508
3808.0261,7.489349342495936,37.790785535702476
3808.9043,7.552522461303676,38.35071200766997
3809.7805,7.611958824384922,39.572461100164944
3810.659,7.646492954230182,41.66840485965814
3811.5356,7.644175728664764,42.089328768319206
3812.4126,7.6109016760332855,40.71207370603019
3813.2917,7.564815402930784,41.25403578475913
3814.169,7.523771752518359,39.386576090351674
3815.0483,7.495316223476397,38.83938370752688
3815.926,7.478415016010413,41.76984424406109
3816.806,7.470780701081906,39.52488259409535
3817.684,7.476133226290635,44.37814707945676
3818.5623,7.504699317890618,38.39238429689228
3819.4429,7.566491488205598,38.377203666265004
3820.3215,7.658217994133599,38.51536826316126
3821.2024,7.755078610480655,41.306033563167794
3822.0815,7.814791832911632,40.53261249823803
3822.963,7.802033476963038,42.046843475532725
3823.8423,7.7124626475759435,47.63310569437801
3824.722,7.576300794205536,47.137323148182496
3825.604,7.436706766253289,40.93094084438771
3826.4841,7.325079037386393,44.346472350163225
3827.3665,7.248497279855253,43.00320584599885
3828.2468,7.199118769924164,41.43861814248244
3829.1296,7.164806379778571,44.64701668537642
3830.0105,7.1367492372141355,48.29541483439203
3830.8916,7.10901285150801,46.17508347752956
3831.7751,7.077232660032717,46.75096992395368
3832.6565,7.038469063715521,48.96257241975371
3833.5403,6.991274914584104,47.60826166764008
3834.4224,6.937153489168136,45.83723817444552
3835.3064,6.880103477095317,46.18921147192776
3836.1887,6.8275770797580755,47.93773172684012
3837.0713,6.788469264383713,54.06009956548297
3837.956,6.770573173996066,55.090185030026454
3838.839,6.777234563898978,43.74236365848658
3839.7244,6.806131984202137,53.239386918139644
3840.6077,6.8508871009088335,49.27537574494515
3841.4932,6.904113061185027,43.67591206840464
3842.377,6.958418930399635,48.9506388319411
3843.261,7.008198418186999,48.495174493481215
3844.1472,7.050081052585319,42.30645112823666
3845.0315,7.0831550302897215,44.86561569682817
3845.9182,7.109255694477761,46.482420103221436
3846.803,7.131290099589524,49.834694272760075
3847.69,7.15263511047084,43.775737322242264
3848.5752,7.175641112717135,45.523960214716915
3849.4604,7.201027011451882,49.120755907784826
3850.3481,7.227338511780096,41.94456656275896
3851.234,7.251365393687858,43.061320193758604
3852.122,7.270124243844919,44.28683060823705
3853.0083,7.281775803668982,46.18524077202692
3853.8967,7.286479132421579,44.2028545874575
3854.7832,7.286024306257968,42.43013850795595
3855.6702,7.2834150378766305,44.20479788556155
3856.559,7.281813284924102,41.865339355633246
3857.4463,7.28330427150357,40.81619192646356
3858.336,7.288137828775699,41.48638132492589
3859.2234,7.295007751675447,42.965875807467874
3860.1135,7.302195424956231,43.356431392668945
3861.0015,7.3083568221896185,44.96803788782468
3861.8896,7.312868371406779,45.85817472230094
3862.7803,7.315428070140001,41.92676357447313
3863.6687,7.315809089060956,45.53946613273732
3864.5598,7.314070200698895,45.62180828612011
3865.4487,7.310820952004667,44.85720601242536
3866.34,7.306876284278086,44.970947868326846
3867.2297,7.30227576315602,42.07921012732456
3868.1213,7.295341440683049,39.39089623974993
3869.0112,7.283236137420666,41.0406764358546
3869.9014,7.263658966403925,37.79748339779833
3870.7937,7.236384522166432,41.92147353768141
3871.684,7.203421107502325,49.017233274230975
3872.577,7.167199990419373,45.11755123471174
3873.4678,7.130189423816796,42.73024975666988
3874.361,7.093960813764364,47.94618963344594
3875.2524,7.059545323685921,45.640692685203014
3876.1438,7.0262067269522275,49.37998128128049
3877.0376,6.991996535639994,45.632912487731666
3877.9297,6.955748073168238,42.59150375163812
3878.8237,6.9180865685985005,45.03810173732753
3879.716,6.8813589929251515,47.22482705870188
3880.6108,6.846271161916508,47.89314888508803
3881.5037,6.810303443529452,49.79278809014388
3882.3965,6.7676563363932125,52.583270412046225
3883.2917,6.712462113289621,46.66671111687681
3884.185,6.642558402018259,50.53887717210667
3885.0808,6.559474497172275,52.275509745013004
3885.9746,6.467784912159195,53.3637206771796
3886.8706,6.3703166440150705,58.57372650782469
3887.765,6.2686407770157615,59.170825217713826
3888.6592,6.164356423294974,63.349833942486654
3889.556,6.064137963696839,60.206088897347726
3890.4507,5.982159592542685,68.37343469508734
3891.348,5.934229054893331,71.54841681829805
3892.243,5.931523597093302,69.4895679696692
3893.1406,5.974432384343416,65.2529432362182
3894.0361,6.053284560290149,57.63640455509017
3894.932,6.153959876195847,60.63172415582886
3895.83,6.262830627808856,60.793583743535585
3896.7263,6.36807889015513,54.9815406429296
3897.625,6.461730625658255,54.28660503221846
3898.5215,6.537642849966689,52.23978834213002
3899.4207,6.594270164126582,48.84868034846034
3900.3176,6.634554488084945,52.71431050107233
3901.2148,6.667417655280024,46.30866480777925
3902.1145,6.704478258991009,50.122055329397554
3903.0122,6.754387633832329,48.943350271891156
3903.912,6.818563830968693,48.167567504448506
3904.8103,6.889805722529085,51.64350952097467
3905.7107,6.957910045547796,47.11832561777866
3906.6094,7.014633208650403,41.43022507208693
3907.508,7.05808709477842,47.9983052541132
3908.409,7.091431486849602,42.46752360633417
3909.308,7.119602212308116,49.17147578970534
3910.2097,7.147052378280896,41.39812789905961
3911.1091,7.175940507928115,45.137604030539364
3912.011,7.206413276562353,47.27365335868403
3912.9111,7.236030972213703,40.00797947252149
3913.8113,7.260848661588103,39.632858803046624
3914.7136,7.27688375946689,40.635913852601824
3915.6143,7.282381705819851,41.941713634546026
3916.517,7.279526429837478,46.93999663787263
3917.4182,7.273595509679777,45.04466053396178
3918.3215,7.270190193973165,42.17000109050778
3919.223,7.2724251203778305,44.0482357673413
3920.1245,7.279943174928813,41.22346435090202
3921.0286,7.290252613926076,45.458103778837454
3921.9307,7.300629850311454,43.04700813544775
3922.835,7.309574114391587,49.844979424455744
3923.7373,7.316742533668726,42.974663373866434
3924.642,7.322605056036186,40.67328714312273
3925.5452,7.327786428823536,42.67560678301919
3926.448,7.332761012316766,38.49356763909883
3927.3535,7.337448528134669,44.445943480947
3928.257,7.3410340967081735,41.382753356965644
3929.1628,7.3425178244329015,42.18849690081763
3930.0667,7.341640091991237,44.97235579709984
3930.9731,7.339570135336459,42.32735454591606
3931.8774,7.338449530913528,43.591377419588056
3932.782,7.339994528162334,42.384855486669856
3933.6887,7.344377593242364,45.456407387258906
3934.5938,7.350010363053022,41.63507590525738
3935.501,7.3542695510957845,43.8563335590222
3936.4062,7.354421647676965,40.797266880438514
3937.3142,7.348714565526274,42.65946529849921
3938.22,7.337099344486144,43.98026782122291
3939.128,7.320839393384705,47.995312008710115
3940.0342,7.301476015221047,44.60261730095263
3940.9407,7.279475041431098,39.02038554514736
3941.8494,7.254211812081078,40.47959980137283
