wavl,flux,ivar
3566.9744,1.0165258634241408,2563.0093555716794
3567.795,1.0126945867691879,2786.2006909518195
3568.6177,1.0088522552137023,2548.2979212779333
3569.4385,1.0060584348017634,3185.867885185922
3570.2617,1.004453622293456,3085.1812173153653
3571.083,1.0033671599452891,2704.089267943293
3571.9065,1.001834829371342,3363.620149757169
3572.7283,0.9992096044747774,2695.907349945782
3573.55,0.9953361348329127,1931.6186191601703
3574.374,0.9904345174387795,3123.0599154937604
3575.1963,0.9850623110502528,2318.3450537498434
3576.0208,0.9801048770162591,3352.375605969691
3576.8435,0.9768875868622728,2989.535026113811
3577.6682,0.9767624414122592,3470.0558693227163
3578.4915,0.9804755405900368,3452.2844239165847
3579.3145,0.9875698745792962,3093.437154207543
3580.14,0.9964687829722895,2467.6658549834506
3580.9636,1.005058814006023,2886.322172481435
3581.7893,1.0117372750261682,2249.7171822203327
3582.6133,1.015817484114727,2445.7011191088554
3583.4395,1.0175924812222357,2484.925999696818
3584.264,1.0177599974760558,2244.1221446744507
3585.0884,1.0169498293493475,1834.8197087819176
3585.915,1.0155601648885755,2743.629324942651
3586.74,1.0139614195175644,2258.2331621276676
3587.5671,1.0125478426677896,2960.3119049225834
3588.3923,1.0115290840203313,2285.812477470942
3589.22,1.0106687182670158,2649.316795548184
3590.0457,1.0094272475496526,2860.7861621096185
3590.8716,1.0073450655252438,2183.2723001754334
3591.6995,1.0043650241992566,2656.453427667676
3592.526,1.0008673147091702,2372.5768591364504
3593.3542,0.9973549656796407,3035.7734388801164
3594.181,0.9941720451723202,2570.4303231897666
3595.0098,0.9913141801708045,3094.5184953347493
3595.8367,0.9886772943047701,2164.2723704306677
3596.6638,0.9862949496052856,2633.4863816231154
3597.4934,0.984372275603323,2518.4133931213405
3598.3208,0.9829547024712365,1985.5062190353601
3599.1506,0.98158801032807,1877.8133752148296
3599.9788,0.9795076934763097,2557.4511273806697
3600.8088,0.9761928726358178,2017.0436694904208
3601.6372,0.9720038726852219,2537.8796354114397
3602.4678,0.9682572354330475,2140.077490337805
3603.2964,0.966708459522705,2576.1450523097938
3604.1252,0.968387089553501,2644.7617142798013
3604.9565,0.9727920662551617,2630.785621609294
3605.786,0.9780052519820265,2605.625627716769
3606.6172,0.9819960358058607,3023.5179603603365
3607.447,0.9837778358737544,3606.651494328441
3608.2788,0.9836981933984587,2056.0806251362696
3609.109,0.9826825189284742,3488.881579904443
3609.9392,0.9814593357633451,2737.507558750124
3610.7717,0.980374885577705,2693.06074445293
3611.6023,0.979652781524363,2518.1313372167037
3612.435,0.9795150500255894,2363.6217976251332
3613.266,0.9800158014557936,3170.0792346927706
3614.0994,0.9808419847635484,2900.9906752395373
3614.9307,0.9814596755190476,2408.8754197998596
3615.7625,0.9815891813382936,2299.1166197394173
3616.5962,0.9815113343599171,2508.832464869223
3617.4282,0.9818466818401973,2602.1610520170516
3618.2625,0.9829356262055378,3782.6155072618376
3619.0947,0.984401403532006,2946.1473113886123
3619.9292,0.9853355884058774,3083.479471364096
3620.762,0.9848445617468646,2893.6139104009235
3621.595,0.9825451227768672,2007.12373901904
3622.4302,0.9786781973077745,3209.3973965414357
3623.2634,0.9740050747486956,2522.305136081645
3624.0989,0.9694118012475842,2123.0979695611672
3624.9326,0.9656152625161055,2129.039244773184
3625.7686,0.9628621593348384,2153.117795980412
3626.6028,0.9610700751707925,2716.1837332000428
3627.437,0.9600018056080126,3088.9341208607516
3628.2734,0.9594090680633418,3017.358685993483
3629.1082,0.9590284976895842,2736.6055530267718
3629.945,0.9586425224263414,2359.924125815594
3630.78,0.9582663992211238,1674.5985152513665
3631.6174,0.9582191151513245,2797.9582595976613
3632.453,0.9589447372949949,3221.210876965001
3633.2883,0.9606478663562847,2531.722072847264
3634.1262,0.9630367535334258,2114.247132233441
3634.9622,0.9654002401370534,2360.255996975798
3635.8005,0.9671489747846332,2539.006269063926
3636.637,0.96825067192864,2446.4799027943277
3637.4756,0.9692266550004057,2491.338495522272
3638.3123,0.9705875574214373,2484.055936397763
3639.1492,0.9723731472606679,1325.7508898432486
3639.9885,0.9741555907855997,2088.1554286015366
3640.826,0.975392157833508,2451.1723558352187
3641.6653,0.9757994557090518,2426.907632120507
3642.5032,0.9754624860202916,1624.304164910866
3643.343,0.9748069015999571,2450.107321354421
3644.1812,0.9744229574477281,2673.487824812618
3645.0195,0.9747123624220395,2598.2652245234267
3645.86,0.9755258400183806,3203.930964176679
3646.699,0.9761071487902254,2324.482212370619
3647.5398,0.9755887484690593,2279.9066070112704
3648.379,0.9736690063602943,3185.1006761501358
3649.2202,0.9708054707849383,2614.7565855788453
3650.0596,0.9677461505619858,1927.171340303878
3650.8994,0.964822681645872,1686.3648528982592
3651.7412,0.961838679275944,1997.3572915784266
3652.5813,0.9584964927201355,1620.9458210614664
3653.4236,0.9547774626305008,2430.020545034274
3654.2642,0.9510481592616774,2480.3028066164075
3655.1067,0.9477004253816278,1724.263872201624
3655.9475,0.9448671071544142,2015.2882044805974
3656.7886,0.9422762222472275,2186.996386138025
3657.6318,0.9395330022098877,2922.032484704804
3658.4734,0.9364853111697063,3092.0951418121113
3659.317,0.9332495238379127,2072.214351248964
3660.1587,0.9300824120406491,3538.5395119420464
3661.003,0.9273076193444052,1939.2109516910255
3661.845,0.9256573249622057,4179.2595058418365
3662.6875,0.9263259348850769,1686.9778524242784
3663.532,0.930457457587315,1564.2805840902574
3664.3748,0.9381383978099211,1541.109795876262
3665.2197,0.9480082527659218,2297.6642946364964
3666.063,0.9576532149716107,2574.98452578197
3666.9084,0.9648978020375681,2660.21805250056
3667.752,0.9685623254934177,1694.2254053021124
3668.5977,0.968795459409996,1332.0207983917794
3669.4417,0.9666084959464898,3319.645125264089
3670.286,0.9633339564107447,2292.7293400898616
3671.132,0.960176168468001,1814.8984789258423
3671.9768,0.957956869907025,2546.4465063052526
3672.8235,0.956893872479815,1946.5433869619321
3673.6685,0.9566385662617881,1603.490233041804
3674.5156,0.956544980597013,2193.2357404488566
3675.3608,0.9561337698572482,2084.6022279670465
3676.2063,0.9553806048692186,3493.243693421624
3677.0542,0.9546094708125836,1816.9116292659696
3677.9,0.9541027279378802,3031.094162559755
3678.748,0.9537661743766693,2361.057974372057
3679.5945,0.9531945114519675,3037.2843364313
3680.4429,0.9520326181265547,2975.182580193863
3681.2896,0.950333968662195,2651.642694731967
3682.1365,0.9485561298106303,2298.1332814355583
3682.9856,0.9472449963031156,3264.698442321975
3683.8328,0.9466467046292796,2360.8673395548517
3684.6824,0.9464912568505068,2663.524402814363
3685.53,0.9461344690502003,1288.9463648082613
3686.38,0.9449667800972601,1863.9012545144217
3687.2278,0.9429421230867704,2878.7642923741373
3688.0762,0.9408179270474951,3609.2191354726624
3688.9265,0.9398760821221691,3014.485986137713
3689.7751,0.9411703350050598,2218.6448375995387
3690.626,0.9448191223110104,1938.5354428450376
3691.475,0.94984232500361,2199.5558231711098
3692.3264,0.9547229977963898,1463.4766251425117
3693.1758,0.9580756152665054,1832.1540724213417
3694.0254,0.9592433933489366,3015.0211077139943
3694.8772,0.9583406868059442,2953.4936955458343
3695.7273,0.9560576962998064,3.097484076412418
3696.5793,0.9532657612022195,1565.7323819635278
3697.43,0.9506834316314916,2016.182352349743
3698.2825,0.9486796413522435,1643.8937486959849
3699.1333,0.9474509782721564,1750.8103512740931
3699.9841,0.9472132951341734,1686.8004604211637
3700.8374,0.9481822139712397,1276.7654713428983
3701.6887,0.9502340549850435,1994.8344763230546
3702.5425,0.9527290270264722,2094.470298299157
3703.3943,0.9547190551419626,1754.8270653667705
3704.2483,0.9555197362240562,2436.8664804107543
3705.1003,0.9550423941285922,2667.6733274486733
3705.9526,0.9536995541025151,3930.6640940425204
3706.8074,0.9519259905362443,1963.7099495312502
3707.66,0.9498392235624387,2144.8570629202354
3708.515,0.9472774722789934,2823.8156953433854
3709.3682,0.9442127538860668,3007.5619843075046
3710.2234,0.94090494160093,2968.2877281442397
3711.0771,0.9377690478126068,1985.5876881553102
3711.9307,0.9350233596142242,1880.1136569776704
3712.7866,0.9326416550063835,1616.2328003133016
3713.6409,0.9305723776739582,1399.4315928260758
3714.4973,0.9288828200722036,1297.9115918278878
3715.3518,0.9278009081125245,1792.6889879115947
3716.2085,0.9275842028990295,1408.507573658785
3717.0635,0.9284248771775593,2585.1263328662963
3717.9185,0.9303153770050786,3327.0834546949545
3718.776,0.9329941691289805,2932.6732375010197
3719.6313,0.9360435171289152,3679.031172901674
3720.489,0.9392188333241687,3414.890275172545
3721.345,0.9425218943972345,3143.5218105117574
3722.2031,0.9460484056182076,2663.232090126097
3723.0593,0.9495799577191243,3580.4903547419162
3723.9158,0.9525559891495149,2231.180595091304
3724.7747,0.9543386406562813,2180.053130459208
3725.6316,0.9545883876556909,2674.2475927612863
3726.4905,0.9533907157099127,2469.375757230161
3727.348,0.9510905263966394,2325.024437056358
3728.2073,0.9481747484040841,2840.746684974885
3729.065,0.9453390542101354,2732.5083967410956
3729.9229,0.943349312527354,2066.0593871336405
3730.783,0.9426967154526616,2740.907444269763
3731.6414,0.9432505610286431,2173.4542371455404
3732.5017,0.9443363921910753,2516.4330351024414
3733.3604,0.9452429830245559,2949.5536033129647
3734.2214,0.9457327355320047,2647.44519610718
3735.0803,0.946083713833674,3558.3238233577135
3735.9417,0.9466944938508681,2346.417712369356
3736.8013,0.9475962777908866,3002.256019768265
3737.661,0.9483434891371517,3552.195463022688
3738.5227,0.9483218964112796,2552.0738777840797
3739.3828,0.9472092411106274,2334.2648381152876
3740.245,0.9452189182217428,2941.5221254720095
3741.1055,0.9429892931866902,2546.274336127151
3741.9683,0.9411450026573451,2215.192361380493
3742.829,0.9399360258015033,2101.2388920866547
3743.69,0.9390835003276671,2842.121423988242
3744.5532,0.938017425792181,2122.9862318261617
3745.4148,0.9362633824303325,2120.0384320075364
3746.2786,0.933703428082565,3597.1649547845996
3747.1404,0.9306370529109985,2068.8818399228776
3748.0044,0.9275197847936344,4759.57565565649
3748.8667,0.9247161567832625,3258.965616428038
3749.729,0.9223050082814027,2449.730904494657
3750.5938,0.9202481144006398,3398.4219290504557
3751.4565,0.9186976546375677,1930.7594088928956
3752.3215,0.9180741010555015,2224.158303589544
3753.1848,0.9188609032242991,3256.029063747003
3754.0503,0.9212059629711015,3356.684842687361
3754.9138,0.9247043487159397,2790.8661227463695
3755.7776,0.9286272272747805,1549.345606455869
3756.6438,0.9323780218719745,1768.0590673582406
3757.508,0.9358010012236411,2470.0279915038977
3758.3745,0.9391431061777167,2902.5562493499842
3759.239,0.9425659836035103,2779.653619582956
3760.106,0.9459325423676179,2066.499145221535
3760.971,0.9488178634260557,2506.9963250423752
3761.8362,0.9507841583154637,2342.2408424380374
3762.7036,0.9514548424477681,1715.0874119539976
3763.5693,0.9506003534864483,2285.133296703335
3764.437,0.9483201068238561,3066.8804637564504
3765.3032,0.9451788459106252,1822.9336316375507
3766.1714,0.9420046525451501,2904.916873268193
3767.0378,0.9395184480009939,1897.2624676814066
3767.9043,0.9379696799793946,3040.7065166367097
3768.7732,0.9371584437175493,1833.5747159939278
3769.6401,0.936664361093453,1437.4821532045514
3770.5095,0.9360998136236751,1222.6891701784548
3771.377,0.9353184841607146,1658.4975935406992
3772.2466,0.9344725291119867,1913.0036287975686
3773.1145,0.9339222796730324,2197.2966781339906
3773.9824,0.9339854127327706,1705.183043971523
3774.8528,0.934755577524439,1911.6272662543086
3775.721,0.9360980760010572,1759.9400470979097
3776.5918,0.9378044208158138,2188.190034361979
3777.4604,0.9396225844532784,1417.2847105774733
3778.3315,0.9412414712420586,1260.7826951845418
3779.201,0.9423217863794857,1820.6759106794163
3780.0703,0.9428168559475142,1740.1883907074853
3780.942,0.9431925803595587,1897.5581764605058
3781.8118,0.9442329733932234,1879.9022592073838
3782.6838,0.9464713072759556,1466.0001808017
3783.554,0.9497002512903885,1698.5900183022661
3784.4265,0.9531051243486192,1602.9766870222181
3785.297,0.9557878423285788,1648.6057172997714
3786.168,0.9573553847581676,1422.9749214791857
3787.041,0.9578799834291095,2464.2844026510006
3787.912,0.9574563593057807,2459.012591596451
3788.7856,0.9558738365546843,1998.548235138788
3789.6572,0.9528024369636822,1934.4086723731568
3790.531,0.9482001868099239,3102.95016648669
3791.403,0.9425587497127266,1723.4477372116455
3792.2754,0.9366012774618199,1192.580346169125
3793.15,0.9309253389502327,1625.668034083047
3794.0225,0.9258551575962529,1902.2776409465655
3794.8972,0.9214173956092607,1924.2614118345953
3795.7703,0.9175993621148092,2189.211482516671
3796.6455,0.9143946246728852,1793.2337043577525
3797.519,0.9119404774661598,1406.1975262055148
3798.3926,0.9104648453155818,1870.5868780909464
3799.2686,0.9102192569580676,2131.2143593330625
3800.1426,0.9113311610427883,2298.8137905824087
3801.0188,0.9137381371879757,1376.1221720562983
3801.8933,0.9171956192868446,1225.486534008277
3802.77,0.9213417672116674,1548.3833214181793
3803.6448,0.9256378184161025,1064.3910943308592
3804.522,0.9295383811378607,1286.4427422669532
3805.3972,0.932681807460315,1674.0319260100284
3806.2727,0.9352182748116841,1070.8502773098137
3807.1504,0.9377121274214008,3401.134373198783
3808.0261,0.9407260546826428,2595.980641132165
3808.9043,0.9444945825059201,2313.8883091611165
3809.7805,0.948847266099136,1214.5869550888624
3810.659,0.9534879786091784,1622.729381642198
3811.5356,0.9580163051210465,1538.4480902983692
3812.4126,0.9619716511602779,1770.7515409941354
3813.2917,0.964878384457222,2281.557948169197
3814.169,0.9664760780591019,1714.1628555182833
3815.0483,0.9669345394278497,2572.3413153167207
3815.926,0.9667381178743613,2624.6633314571404
3816.806,0.9664154419690002,2082.5610209955125
3817.684,0.966238507064648,1875.030118026027
3818.5623,0.9660621931043535,1562.5572671778505
3819.4429,0.9653921496518209,2199.472277112946
3820.3215,0.9636637629067932,2492.316672973365
3821.2024,0.9605512173729656,2479.3948954888083
3822.0815,0.9561646434358362,2258.005777610678
3822.963,0.9508687100223651,1840.0159975609263
3823.8423,0.9450297866783113,2400.1608320327837
3824.722,0.9386696143580613,3289.910983026508
3825.604,0.9315371410141196,2631.875418045679
3826.4841,0.9234998950925045,3682.3282373348297
3827.3665,0.914748226453853,1961.5605756898742
3828.2468,0.9059507509762368,3045.746601295927
3829.1296,0.8977077912559867,1859.3465048812475
3830.0105,0.8902146409214086,3386.8710227875486
3830.8916,0.8829313072994984,1479.9633994251042
3831.7751,0.8750273965707364,1914.506786595681
3832.6565,0.866191336006854,3688.7392181971677
3833.5403,0.8570404621037337,2127.767359784274
3834.4224,0.8492029717097295,3231.994559025798
3835.3064,0.8444442330806856,2796.728841589731
3836.1887,0.843918837024677,2145.683504139936
3837.0713,0.8476356316979219,2066.092699404238
3837.956,0.8547365544026242,2364.289529181951
3838.839,0.8640344340474584,4310.403884786347
3839.7244,0.8746140798107429,2227.3425957851896
3840.6077,0.8857154310667114,1894.3244700629016
3841.4932,0.8967556025741055,2773.660997729135
3842.377,0.9071266488413363,2687.914472181043
3843.261,0.9165317691331137,2272.4718581230227
3844.1472,0.9249545020290402,1573.3057996093676
3845.0315,0.9324755287080825,2703.3055986957693
3845.9182,0.9393095867083748,2135.649763536975
3846.803,0.9457067410551235,1813.0672354303902
3847.69,0.9520925425650582,1729.7409423213571
3848.5752,0.9587624045442947,1160.103346007949
3849.4604,0.9658121371991198,1620.8905302228109
3850.3481,0.9731804013679217,3387.076194916116
3851.234,0.9807876199404845,2081.030336526446
3852.122,0.9886936885549209,1488.6581090252187
3853.0083,0.9967183444779807,2094.447889076796
3853.8967,1.0043847143762832,1604.4448671708285
3854.7832,1.0108866302753108,1867.9717497464349
3855.6702,1.0156315667534896,2075.82226529844
3856.559,1.01854319325438,2500.3909784932202
3857.4463,1.0200917241172736,2102.678326457828
3858.336,1.0209846930431121,2203.9623689456243
3859.2234,1.0217179428698016,2377.8921992399146
3860.1135,1.0224258462169729,2683.362805594464
3861.0015,1.022971213522681,2358.8130502431277
3861.8896,1.0231186827152148,2241.6329832162046
3862.7803,1.0225628243941336,1900.0065613374368
3863.6687,1.020949686154629,1546.6606226307338
3864.5598,1.0180020772543021,1938.4515784437442
3865.4487,1.0137574317871612,1451.2923001644544
3866.34,1.0085286711668202,2078.365197985164
3867.2297,1.0027851087460653,1449.809270011431
3868.1213,0.9968358012489803,2244.387748353093
3869.0112,0.9908166226291607,1522.10861278727
3869.9014,0.9845621324401682,1077.232868757126
3870.7937,0.977647282461618,1282.4894313127766
3871.684,0.9696447584212978,1063.4516646448096
3872.577,0.9604095953693744,1936.8382279954442
3873.4678,0.9504995373805779,2387.386371679475
3874.361,0.9408111025023049,2028.9932993080995
3875.2524,0.9322406931682623,1443.32933463575
3876.1438,0.9250431144354043,1769.5024787513062
3877.0376,0.9187355732219524,1605.1838943501446
3877.9297,0.9123096493656002,2765.950537427752
3878.8237,0.90457987951589,3323.825474205858
3879.716,0.894826333051869,2357.7706509775367
3880.6108,0.8829327742267163,2234.5846560733744
3881.5037,0.869443887130869,1621.23355978031
3882.3965,0.8550011061888791,2142.555047440852
3883.2917,0.8400716433173547,2025.6142105345452
3884.185,0.8249792329321807,1868.0467501740552
3885.0808,0.8097994346492258,2514.703869937723
3885.9746,0.7949549196366374,3401.0100372947477
3886.8706,0.7811620787813628,5251.124233531127
3887.765,0.7696838789934458,2871.43181889535
3888.6592,0.761803871979065,2186.296737467465
3889.556,0.7584825324512791,2552.205653312328
3890.4507,0.7599597601180431,3393.962505067218
3891.348,0.7656033350173708,1540.2231951941394
3892.243,0.7741619684622498,1836.4329113151691
3893.1406,0.7844097731439763,1763.5436991675672
3894.0361,0.795437313560447,1534.5391393571235
3894.932,0.8069592028183249,2359.136973325972
3895.83,0.8190792287490193,2951.1951950164594
3896.7263,0.8319996666404574,2343.1991504884368
3897.625,0.8461003329127137,1345.8499249887734
3898.5215,0.8615285846385285,3904.8884092942635
3899.4207,0.8782929987904484,1382.4458909760672
3900.3176,0.8957975911665204,4137.748830808925
3901.2148,0.9132287994459936,1232.008436342634
3902.1145,0.9297174120744885,931.1076695826172
3903.0122,0.944618235310513,1616.4437295999048
3903.912,0.9580400365909773,1334.7593671037162
3904.8103,0.9704936905327023,948.3168333806738
3905.7107,0.9827333745103002,1550.8041936449993
3906.6094,0.9950907381977873,1619.387856201014
3907.508,1.007512164253218,1325.0970202180254
3908.409,1.019672814697855,1405.1281073017908
3909.308,1.0311381018876318,1873.8318034884217
3910.2097,1.041676623584921,1371.155784903729
3911.1091,1.051118244598698,1055.0353393913197
3912.011,1.0596644110817173,859.611781209823
3912.9111,1.0677348792328343,981.4832315562796
3913.8113,1.0759528350068306,1154.2815467559265
3914.7136,1.0847773051524499,1293.874506003126
3915.6143,1.094162758127186,1047.6728902206075
3916.517,1.1036514958506976,1115.2256072036264
3917.4182,1.112446729401271,1211.286882128389
3918.3215,1.1199318867827015,979.5862051042873
3919.223,1.125770072224767,1177.411040689759
3920.1245,1.1300289260335004,1459.9838975742057
3921.0286,1.1329648688635037,1858.4900950819983
3921.9307,1.1349108861974915,2014.9523764114517
3922.835,1.136320949143862,1257.3712146223547
3923.7373,1.1377244358214542,1868.004867527712
3924.642,1.1396101795824713,1189.5942717849323
3925.5452,1.142122253043846,887.471822054973
3926.448,1.1449157980606033,1938.0585221820231
3927.3535,1.147319866874196,1054.2921097133678
3928.257,1.148749632282863,2507.305682253846
3929.1628,1.1490650400807114,1893.3589123615413
3930.0667,1.1484319016359057,1739.5939777033595
3930.9731,1.1469641038685703,2065.832538882695
3931.8774,1.1446026383213956,1752.387558791533
