wavl,flux,ivar
3566.9744,0.9268778911066617,897.4156471761494
3567.795,0.9257398117093144,861.4646365218562
3568.6177,0.9249722387165922,822.7741512607248
3569.4385,0.9242141776285209,855.1261737571026
3570.2617,0.9232838406158524,737.3990565496002
3571.083,0.9224406433784056,921.5475593957525
3571.9065,0.9222169633395414,970.1872078452094
3572.7283,0.9229554039010313,594.3817509426485
3573.55,0.9244278015474668,590.6295921030841
3574.374,0.9258863257770581,706.5778149309892
3575.1963,0.9264126380255086,963.9680190975265
3576.0208,0.9253085935605833,1032.5819760040836
3576.8435,0.9223068421613235,1062.9152304456509
3577.6682,0.9176849101179584,675.0697687101228
3578.4915,0.9123975020981133,920.318292220196
3579.3145,0.9078335352062615,846.840736512928
3580.14,0.9052373134159722,695.3684719863444
3580.9636,0.9050479914860792,806.9967596113808
3581.7893,0.906656764201297,861.9644913615867
3582.6133,0.9088553620535385,1069.8644479579916
3583.4395,0.9105234384176037,902.9260626769092
3584.264,0.9110432633170603,895.9557472409653
3585.0884,0.910415088032534,870.6326937550162
3585.915,0.9090445060709033,886.6636383090294
3586.74,0.9074443886972753,1146.1762970447567
3587.5671,0.9059584981039183,976.887413960462
3588.3923,0.9047430954694857,829.9667024831081
3589.22,0.9038281402545896,782.2312875406238
3590.0457,0.9031724161267795,816.2305849034892
3590.8716,0.9025856809615632,959.5442301335833
3591.6995,0.9017470327795163,821.9470843451923
3592.526,0.900376275243804,641.4508404251916
3593.3542,0.8984151962775935,927.6462168821362
3594.181,0.8961171203420072,992.2227840359761
3595.0098,0.8939549010264741,713.4106076344068
3595.8367,0.892539452397763,1320.4212530428547
3596.6638,0.8923724314354047,960.692927059276
3597.4934,0.8935940993208566,934.5623846981641
3598.3208,0.8958298028826932,865.3805046623263
3599.1506,0.8984251239703233,670.3884417885863
3599.9788,0.9007796256977738,787.5435054040879
3600.8088,0.9025994561216186,882.5552873829635
3601.6372,0.9038191186285024,885.3464180432535
3602.4678,0.9045398164520487,1077.070198497435
3603.2964,0.9049595528118903,816.5304458073508
3604.1252,0.905307632624362,776.2911094173623
3604.9565,0.9057356899810737,691.6235614480463
3605.786,0.9063392318826058,904.9962698567186
3606.6172,0.9072649126554411,861.9792159543256
3607.447,0.9085895401041023,683.1899899821897
3608.2788,0.9100076605051293,772.1831300096502
3609.109,0.9107111670695579,968.0889188876024
3609.9392,0.909860805899202,679.2776357865631
3610.7717,0.9072428414396576,976.6030948922242
3611.6023,0.9035704378594294,905.7991222720103
3612.435,0.9000214926068122,905.5470707396923
3613.266,0.8975472212979532,1062.3575788943783
3614.0994,0.8963235247350112,978.6772706396877
3614.9307,0.8959232810940102,844.9786254249816
3615.7625,0.8958641421256617,835.4445385971495
3616.5962,0.8960454238093748,1343.6963523163552
3617.4282,0.8965944314692309,1137.1165957981864
3618.2625,0.897426870374786,949.930946909833
3619.0947,0.8981475977505866,831.9251027224436
3619.9292,0.898494658940516,727.7792447926689
3620.762,0.8987023060206254,990.2623788167965
3621.595,0.8992600455196595,1025.7635734284715
3622.4302,0.9002444384669864,857.0268284597008
3623.2634,0.9009787838352331,783.9021971663203
3624.0989,0.9004821179839122,961.5926536496867
3624.9326,0.8982888918627998,716.0211126367742
3625.7686,0.8948835121000135,1079.0564913344015
3626.6028,0.8914204688290714,858.2744736576026
3627.437,0.8888758906250174,1231.941812655498
3628.2734,0.8874125824517426,1234.5166820601328
3629.1082,0.8863189373690812,780.3335809387922
3629.945,0.8845257232446698,837.1413510312499
3630.78,0.8813863251083164,1137.4726848384307
3631.6174,0.8770583708430191,907.1530296267787
3632.453,0.8724414413181013,942.2713815015517
3633.2883,0.868638552069252,997.6133425497745
3634.1262,0.8665481667485364,980.8364013363298
3634.9622,0.8665748627602684,1392.7243279601962
3635.8005,0.8684028442010583,1047.2927317825668
3636.637,0.8709832098488344,744.9664579443873
3637.4756,0.8729056523741496,1072.7455938542994
3638.3123,0.8730142081089969,871.654092034957
3639.1492,0.8710122009266505,833.0962024728957
3639.9885,0.8675496504116772,898.7968501962138
3640.826,0.8638889466466968,866.7728992877425
3641.6653,0.8611929060306671,891.6109568552351
3642.5032,0.8600151294721297,1058.9982182015522
3643.343,0.8601033208693772,1070.3364864168464
3644.1812,0.8607845975659802,875.5267946186442
3645.0195,0.8615437555913495,1178.4097492202839
3645.86,0.8622784639550405,1138.3687576616653
3646.699,0.8629980697453012,1079.897204914075
3647.5398,0.8634080468580179,1202.9335263285695
3648.379,0.8629321613014588,972.4592613926206
3649.2202,0.8612415108894977,1002.028200739579
3650.0596,0.8587031797384894,980.7785437249609
3650.8994,0.8561740846096637,1100.6821208202875
3651.7412,0.8543861943430342,1009.207522964696
3652.5813,0.8535177059048569,916.5959148649472
3653.4236,0.853294082488385,734.2832301212612
3654.2642,0.8533925747750252,1080.5622402106726
3655.1067,0.8535850682418566,1197.8762406110086
3655.9475,0.8536001867224007,863.6405220143344
3656.7886,0.8530733755357653,706.3448349088274
3657.6318,0.8517894715128239,1047.267833453782
3658.4734,0.8499819551087183,1160.3496796901895
3659.317,0.8482552533914196,1060.689127037132
3660.1587,0.847237623487626,1403.7807015136505
3661.003,0.847260637590702,905.9300369525171
3661.845,0.8483971408132189,1043.2880021279973
3662.6875,0.8506239614924332,880.2616947217668
3663.532,0.8538560249662881,1188.14201104491
3664.3748,0.8578297461282121,784.9065248009431
3665.2197,0.8621788771529324,897.9382767011782
3666.063,0.8664873887832717,1084.619236266182
3666.9084,0.8703565346239681,1078.5400627331112
3667.752,0.8731959624862814,972.9590736815171
3668.5977,0.874358155184723,898.9755280144487
3669.4417,0.8734785989760635,1062.4712499744362
3670.286,0.8708587814582212,900.6361001628316
3671.132,0.8673500338402222,1217.664848537084
3671.9768,0.8639030117123698,1171.8489444512054
3672.8235,0.8610695868701739,972.93365698538
3673.6685,0.8589626699697278,809.8102069304251
3674.5156,0.8574117295970203,1058.620063156716
3675.3608,0.8562091469804785,905.3721139607667
3676.2063,0.8551136864633709,1095.3879802437073
3677.0542,0.8538104908680224,1075.0065142397784
3677.9,0.8519851584212754,776.4050793577471
3678.748,0.8495149502079736,1101.7181816752386
3679.5945,0.8466988615424398,996.8234053445279
3680.4429,0.8441664129614384,869.2121986471423
3681.2896,0.8425898844919125,1253.3928502075703
3682.1365,0.8422086458948262,1047.642972435003
3682.9856,0.8426341525238724,740.5033898747021
3683.8328,0.8430553537788106,953.5151055527336
3684.6824,0.8427671651642851,1003.7947316963628
3685.53,0.8415734365972127,1107.3815386242322
3686.38,0.8397885370200668,875.9688276570395
3687.2278,0.8379957515304717,1187.5167260771607
3688.0762,0.8367694633651078,890.6816173189555
3688.9265,0.8365490688302787,981.4949135003412
3689.7751,0.8375334737101293,782.2902599633195
3690.626,0.83966241871672,1125.923385424287
3691.475,0.8427139804738448,892.7541542775025
3692.3264,0.8464691100217301,1094.3431576889893
3693.1758,0.8506075230723279,1180.3003055879492
3694.0254,0.8546449161769457,968.0625257148431
3694.8772,0.8580109113781118,1177.8607114073752
3695.7273,0.8603752418963675,1056.2340713068902
3696.5793,0.8618801652836985,1014.3503977053992
3697.43,0.8628339649906578,774.0093638626955
3698.2825,0.8632770200732912,838.460451915806
3699.1333,0.862800156915411,1079.4901214091808
3699.9841,0.8608586617226314,713.9709231989284
3700.8374,0.8572424442772929,925.75461458649
3701.6887,0.8524026167183042,1047.9350203961378
3702.5425,0.8472923814154737,795.8685990839253
3703.3943,0.843065420743371,1032.7662188291108
3704.2483,0.8404855950318375,1119.627784324357
3705.1003,0.8396747993796105,1037.335731272376
3705.9526,0.8401182181025576,1222.5126639964017
3706.8074,0.8410418639262175,943.6585453753471
3707.66,0.8416976064700064,1008.3898992574452
3708.515,0.8415003003743489,935.8844009687059
3709.3682,0.8401326021719027,910.4261795822422
3710.2234,0.8377526752924896,1194.3183230615646
3711.0771,0.8351021343463241,984.5679835896121
3711.9307,0.8331937608809625,1027.0932712443048
3712.7866,0.8327925862182165,1306.6372688953963
3713.6409,0.8340099406303756,1085.099026107414
3714.4973,0.8362758356298468,864.0378735526331
3715.3518,0.8386624909725044,1199.1017922507638
3716.2085,0.8404238021226776,916.4798409764907
3717.0635,0.8413644779677023,1083.8210304139163
3717.9185,0.8419614410902455,1169.2170281125111
3718.776,0.8430944782852431,1066.138829991096
3719.6313,0.8456023357345366,1030.3531500035303
3720.489,0.8498888529499686,1161.779178675204
3721.345,0.8555743018826458,874.5922473681383
3722.2031,0.8615066469452418,1125.9296404380632
3723.0593,0.8660107418939614,851.4487510365099
3723.9158,0.8677339208514087,837.6039005944048
3724.7747,0.8663150017344337,1050.7386235497893
3725.6316,0.8625656301944824,754.8448389890093
3726.4905,0.8578279016776921,872.1731754726379
3727.348,0.8531953556838233,888.66515234493
3728.2073,0.8490980164463132,1036.1484169353391
3729.065,0.8456459467356809,948.9671072422952
3729.9229,0.8429793034998041,905.14276520886
3730.783,0.8413696060096799,973.2574744227377
3731.6414,0.8409797245356317,898.9778114990881
3732.5017,0.8416642040902603,946.3825505957076
3733.3604,0.8430345259861469,1103.650514481798
3734.2214,0.8446253272047631,1014.7506078603992
3735.0803,0.8460122709431828,873.7601666563174
3735.9417,0.8469884824496321,1012.3399845851839
3736.8013,0.8476538216166589,1000.3913040197727
3737.661,0.848362522417343,1120.769887701791
3738.5227,0.8494251826410163,1017.5405347199912
3739.3828,0.8508094326654297,1011.607293677521
3740.245,0.8521121591054684,850.3189127756983
3741.1055,0.8527521561126243,957.5129931460939
3741.9683,0.8522880003907208,955.6292520081838
3742.829,0.8506352421781302,1015.4698314750301
3743.69,0.8481205447482967,932.6530212798169
3744.5532,0.8453192202722063,976.6650622367309
3745.4148,0.8427903026038446,1392.8974865023922
3746.2786,0.8407898362485393,916.7962849728351
3747.1404,0.8392924632411672,917.461844074164
3748.0044,0.8381248744039586,931.259484966413
3748.8667,0.8372064025200896,855.2598205555598
3749.729,0.8366473750403014,1105.3295960634778
3750.5938,0.836737120435502,989.7419730631839
3751.4565,0.8377754842148738,1610.4902268785197
3752.3215,0.839842947878659,1115.762489366956
3753.1848,0.8426177614498074,805.1701693449577
3754.0503,0.8454727174535699,998.1144318231102
3754.9138,0.8477650168386669,939.6781503190317
3755.7776,0.8493210105664071,970.2549263075617
3756.6438,0.8505940586706622,910.8715980115625
3757.508,0.8523208389426566,1051.9745704560016
3758.3745,0.8548463249150932,1083.3968579073814
3759.239,0.8576191480485479,886.9585158581584
3760.106,0.8594809860955743,987.0925129009361
3760.971,0.8594560552619458,880.6449288513785
3761.8362,0.8575397734647496,996.3239449887855
3762.7036,0.8547136840429436,1002.0008881985934
3763.5693,0.852273509229066,1009.404451012476
3764.437,0.8509130387219423,866.9892989681011
3765.3032,0.8504394257845684,953.4937456513139
3766.1714,0.8501755977701778,1148.385300754053
3767.0378,0.8496606805815192,1039.1569038523444
3767.9043,0.848956364883145,985.787792973473
3768.7732,0.8484146013182805,992.406886990039
3769.6401,0.8482466702637252,1031.140408640508
3770.5095,0.8482860097301933,1001.1327759835156
3771.377,0.8480942167407206,981.786586339406
3772.2466,0.8472276598515153,1039.2713946136494
3773.1145,0.8454733246948051,1112.041911089167
3773.9824,0.8429238517448779,1023.4389865266011
3774.8528,0.8399161358509825,852.0372759822337
3775.721,0.8369184536003688,1001.1606857397945
3776.5918,0.8343280303000082,1105.9951200476746
3777.4604,0.832483891152721,1236.6472113118716
3778.3315,0.8316609386587972,1035.217403801787
3779.201,0.8321317455292065,1104.0640375562466
3780.0703,0.834060142089295,1107.2865912247294
3780.942,0.837400371407701,1136.9039702205396
3781.8118,0.8418273771744904,996.6660942750865
3782.6838,0.8468639206188329,1080.5059965411535
3783.554,0.8518834507502216,1019.1414627183857
3784.4265,0.8562443434101478,1026.3465438374692
3785.297,0.8592727067672921,854.9432530311788
3786.168,0.8605094615052431,815.4140775561473
3787.041,0.8598453736945362,1063.0561008791274
3787.912,0.85759397370651,929.1963506302874
3788.7856,0.8543324369507618,1029.3319901004993
3789.6572,0.8507208534204428,1009.0043711025885
3790.531,0.8472697572862731,804.258186747607
3791.403,0.8443179854869142,988.904605094693
3792.2754,0.8419853628595506,886.5404372081532
3793.15,0.8402824287714892,1081.6411063227572
3794.0225,0.8391837353968997,970.673658387299
3794.8972,0.8385772836832639,1129.3452069201328
3795.7703,0.8382267532954514,1029.7217757557087
3796.6455,0.837804100352585,941.0899154424791
3797.519,0.8370575286450951,1069.982582868889
3798.3926,0.8359096295755566,1406.6129831743126
3799.2686,0.8343983551128787,1004.3829592247938
3800.1426,0.8325820834458055,1067.1799035977415
3801.0188,0.8305128235696906,1129.0682441287051
3801.8933,0.8283550798446041,1027.849284463504
3802.77,0.8263272039998361,1345.5388372079897
3803.6448,0.8245657947004242,1113.779726496895
3804.522,0.8230009933235622,955.7917833198301
3805.3972,0.8215745175769243,964.3811332331184
3806.2727,0.8204846407559188,974.8353615531668
3807.1504,0.820216136222097,1043.1976216425494
3808.0261,0.8212235447953089,875.6437687109055
3808.9043,0.8236135036863373,1478.3196108556224
3809.7805,0.8271089130343473,1093.4467941590733
3810.659,0.8313407729823321,1097.6740438991815
3811.5356,0.8360142455803858,1080.382654669474
3812.4126,0.8410284185707022,934.0448351233133
3813.2917,0.8463988568842449,922.9018382494902
3814.169,0.8520794714039878,930.3356993747342
3815.0483,0.8578051068861263,925.7946271119422
3815.926,0.8627792683978687,937.1240304164837
3816.806,0.8658881714487549,861.7293142474938
3817.684,0.8661470532116309,814.3401567472497
3818.5623,0.8633724468265175,990.2444300814547
3819.4429,0.8583888846321259,953.5268121641036
3820.3215,0.8528078793310633,1111.6458513179175
3821.2024,0.8482566795890354,1120.747748832416
3822.0815,0.8457551503331046,914.9515105110772
3822.963,0.8452891555356298,1087.615110503713
3823.8423,0.8460333958984365,1220.9401206577345
3824.722,0.8468828069079661,1079.206472362458
3825.604,0.8469759645435628,1117.5978801224073
3826.4841,0.8458999394853021,841.5446921091757
3827.3665,0.8436016800608844,1027.9759452523908
3828.2468,0.8402473965666396,914.8977960618486
3829.1296,0.8360926680385745,1078.5161463285851
3830.0105,0.8314774940420716,1060.7312925911058
3830.8916,0.826605510903492,1148.8296844814188
3831.7751,0.8214356209513528,855.671935778741
3832.6565,0.815845760757778,1102.2819299358637
3833.5403,0.8098905303159833,1100.5131008875303
3834.4224,0.8041355603779026,1292.545609255323
3835.3064,0.7993747016072479,1034.3263991089125
3836.1887,0.7963257258502189,1180.7571003332391
3837.0713,0.7953048574956948,1058.045289976884
3837.956,0.7962924626949095,1299.6204535343954
3838.839,0.7990480182167876,994.3316792963386
3839.7244,0.8032308106315753,1148.7467777021573
3840.6077,0.8083508647737392,965.6449466742366
3841.4932,0.8138071804713851,1138.292343223033
3842.377,0.8188919420508433,908.8577658761616
3843.261,0.8231651099207696,1184.1201770922457
3844.1472,0.8266925994807315,1306.1114794434789
3845.0315,0.8299701094733757,1191.7578485079061
3845.9182,0.8335714028253428,1181.4491667064765
3846.803,0.837705078839511,1128.9002169005023
3847.69,0.84227295488909,1284.0377702899477
3848.5752,0.8470512694740118,863.3753824833005
3849.4604,0.8519747136872956,1001.8574916964385
3850.3481,0.8571225216275775,1031.5247402596638
3851.234,0.8625406590781594,1228.9236242803627
3852.122,0.8682204717552189,1043.5853948663996
3853.0083,0.8739968274615757,901.8182902159982
3853.8967,0.8797134952495215,839.8137601238262
3854.7832,0.8849917535545512,955.0887283497182
3855.6702,0.8888655519809364,845.8053684984773
3856.559,0.8891807500594692,914.4028455832008
3857.4463,0.8827673598353535,833.9398762031087
3858.336,0.8669903153496729,949.208321579803
3859.2234,0.8426897446356851,743.6986670525798
3860.1135,0.8158161438798517,835.6280853138168
3861.0015,0.7963438031037297,924.0386445921957
3861.8896,0.7923805481209527,1015.36259178627
3862.7803,0.8051249844902986,1101.5344144944481
3863.6687,0.8279736189076939,989.1124583286686
3864.5598,0.8515279492066448,856.1054297209746
3865.4487,0.8688198934920041,890.7261931695691
3866.34,0.8779194492429354,974.0808556451425
3867.2297,0.8801357730899008,1037.9492542574744
3868.1213,0.8778383173505682,823.7274992291457
3869.0112,0.8730957388459887,794.7314548313483
3869.9014,0.8674770167399264,980.6444467788211
3870.7937,0.8621500250656293,995.5371476901377
3871.684,0.8578831031123746,748.466679349343
3872.577,0.8548764882551989,966.4590951335641
3873.4678,0.8528451565937868,1158.2349858920247
3874.361,0.851070443501981,870.9003387561715
3875.2524,0.8487121063793924,819.6807406006196
3876.1438,0.8451571872382844,1007.3884850107501
3877.0376,0.8402736150141015,1116.1719637694796
3877.9297,0.8343638494854387,1029.598701311066
3878.8237,0.8277684554964716,888.3691111587987
3879.716,0.8207451206799209,1010.7216662771336
3880.6108,0.8133583895747418,1127.1214464304774
3881.5037,0.8057012656387526,1047.0304017907679
3882.3965,0.7978455228751093,1211.9991324216019
3883.2917,0.7899157155284598,1230.870239448519
3884.185,0.782142085255702,1176.1741064775636
3885.0808,0.774672509719866,1189.5110153664823
3885.9746,0.7676570744043788,1211.8618464102142
3886.8706,0.7610525201181657,1141.9091278604114
3887.765,0.7547719695310694,1334.058166183903
3888.6592,0.74873239884672,1476.2419447387344
3889.556,0.7431316071431311,1411.4819408664866
3890.4507,0.7386269386918105,1447.1688236506454
3891.348,0.7361072828566434,1074.207075983796
3892.243,0.7364016480538706,1302.1383091913722
3893.1406,0.7398737093599752,1338.8544822422982
3894.0361,0.7462589082107985,1439.6929241191651
3894.932,0.7548012235051922,1290.4547668443508
3895.83,0.7644900811020764,1324.481366055823
3896.7263,0.7742825959532305,1146.2214569274654
3897.625,0.783563952769595,1123.6878648688735
3898.5215,0.7921050931743853,1085.5254374198025
3899.4207,0.8001772013207229,1274.7383001544044
3900.3176,0.8081392775411566,961.492982526587
3901.2148,0.8163331396963239,1152.5153532216086
3902.1145,0.8248260705253995,1114.293865283486
3903.0122,0.8333576941787799,1007.7412593389731
3903.912,0.8417644117732102,1033.9684249880552
3904.8103,0.850179673613671,1063.3013011665403
3905.7107,0.8591944618962791,976.7756740277521
3906.6094,0.8692126332819518,878.2409371934222
3907.508,0.8800180205807351,1076.8055001921507
3908.409,0.8906947640994305,813.5058971783075
3909.308,0.9000984933558116,956.5180303233238
3910.2097,0.9076200652867765,850.4322475685594
3911.1091,0.913175163665537,813.8272466912046
3912.011,0.9171071851354967,679.4219525067496
3912.9111,0.9198239941011465,785.661790843206
3913.8113,0.9218520990908925,800.2736721369199
3914.7136,0.9238484295681167,951.6788982893779
3915.6143,0.9264625643078611,795.3300950619429
3916.517,0.9301140289959725,884.5628082340198
3917.4182,0.9348130828618995,922.0006910968439
3918.3215,0.9403103929779998,782.484969844862
3919.223,0.9461417933336171,917.4196713260528
3920.1245,0.9517561216990337,886.9928896003108
3921.0286,0.9565478076388375,843.1223167664319
3921.9307,0.9600298921092284,740.8709629381466
3922.835,0.9621001911629494,749.1872758688495
3923.7373,0.9629403488976561,764.0455852387615
3924.642,0.9628353061915367,650.5789164895086
3925.5452,0.9620045354225517,854.6556004378855
3926.448,0.9606384192183394,805.7406782007791
3927.3535,0.9589598297138585,783.2521044039089
3928.257,0.9572140740667322,741.1644945611088
3929.1628,0.9555538775581556,791.8048972247456
3930.0667,0.9540298166753507,719.1365844551417
3930.9731,0.9525592208776045,853.055344578863
3931.8774,0.9509703540666399,756.1772581934771
3932.782,0.9490376750370675,816.0786649887694
3933.6887,0.9466131561451167,804.8446402841028
