wavl,flux,ivar
3566.9744,6.760818761954806,43.51396567002141
3567.795,6.717686571157111,31.995903954310407
3568.6177,6.67710454911551,38.63533909316121
3569.4385,6.646630809479359,36.168457214165784
3570.2617,6.627593725359843,35.54505254999288
3571.083,6.616637441460292,36.91691764653791
3571.9065,6.609175211492744,23.217219054663463
3572.7283,6.603446040420614,61.10496563730074
3573.55,6.6013085659804,42.069269450731596
3574.374,6.606228318420282,44.146292011893564
3575.1963,6.619917423026065,34.20466805521189
3576.0208,6.6404011299034496,31.682447755276087
3576.8435,6.66247146769279,38.927829847094976
3577.6682,6.680770155272569,30.89848024368756
3578.4915,6.691649715574111,56.24075949910829
3579.3145,6.693398073368298,51.29315757004381
3580.14,6.685224762571956,32.594304488093485
3580.9636,6.668235024634937,44.42599250398804
3581.7893,6.646976015584186,33.899299397060254
3582.6133,6.629060079809945,39.962170512327795
3583.4395,6.62111149421355,37.39474555834536
3584.264,6.625258723162786,32.5376400735692
3585.0884,6.638237491874329,36.29490379309766
3585.915,6.6536713149616,32.535339898336616
3586.74,6.6647101293321285,41.05700634463085
3587.5671,6.666484188478841,36.884922389762
3588.3923,6.657414347959174,45.1744751492451
3589.22,6.639568014308823,34.73163762809006
3590.0457,6.617693465876868,44.421332686763215
3590.8716,6.596984870731924,30.818747745031803
3591.6995,6.581596551413872,37.882181584874715
3592.526,6.573483406298458,45.534848892528274
3593.3542,6.571173408712587,35.499288736843056
3594.181,6.570318213304725,29.154736326004837
3595.0098,6.566594846141434,44.714596809428066
3595.8367,6.559460937900003,43.986091475521796
3596.6638,6.552921512420971,34.804963534855304
3597.4934,6.552744033438135,33.85797379714902
3598.3208,6.5627379083403925,34.17781833956059
3599.1506,6.582944072974482,32.985350379529336
3599.9788,6.609515942991936,27.127040473926186
3600.8088,6.635912922524644,38.57792295289622
3601.6372,6.653711020689152,32.6714702313798
3602.4678,6.655205034023076,37.30419168945098
3603.2964,6.636827456377943,27.981797937291017
3604.1252,6.602784389892635,38.168475169690474
3604.9565,6.565044721546788,26.95248017228828
3605.786,6.538634164189035,43.158196110266886
3606.6172,6.533070379580262,43.75424024293562
3607.447,6.547714045268776,34.22540711542908
3608.2788,6.572858953265344,40.84674459565886
3609.109,6.595519642714166,25.333054076482806
3609.9392,6.605949003489376,34.40565448009999
3610.7717,6.600575196082383,39.20190984382404
3611.6023,6.582017848793766,43.54334641269724
3612.435,6.556545040923674,40.400663513152466
3613.266,6.531023824445379,55.10019321246169
3614.0994,6.509673256822524,48.38950134312922
3614.9307,6.493630441731429,28.145361004124545
3615.7625,6.481820902034846,65.73927307773612
3616.5962,6.473030903561986,47.73157336096425
3617.4282,6.4667177874910236,37.83844001823848
3618.2625,6.462519967756511,39.77194436858791
3619.0947,6.4598053373945525,34.77780105483006
3619.9292,6.457668702233479,44.36709831346616
3620.762,6.455569498303593,42.46258000156713
3621.595,6.453395393020305,61.92170766538923
3622.4302,6.450732811311404,48.90336146486357
3623.2634,6.446487165776519,39.14745570768587
3624.0989,6.440028978045759,31.913678150010096
3624.9326,6.43309160013248,45.27074260478097
3625.7686,6.429722575758869,51.59761206345242
3626.6028,6.434122175741846,44.01276802995449
3627.437,6.447853874746214,21.26645673364923
3628.2734,6.468603185483925,38.895902211557505
3629.1082,6.490507675883882,29.782508407492852
3629.945,6.506673897378295,29.192456635904435
3630.78,6.511428028779853,34.33542023902594
3631.6174,6.501886991738427,39.67410419836659
3632.453,6.477811146267318,39.987098988325656
3633.2883,6.441641535492745,28.553243161727433
3634.1262,6.39924290729551,41.84342241085086
3634.9622,6.359852491296014,28.79615062995553
3635.8005,6.331789511195559,47.19749296338982
3636.637,6.318823976294822,41.79398412781519
3637.4756,6.3184807452254725,33.58608929329521
3638.3123,6.325229498668602,28.86346182428467
3639.1492,6.334115200047339,47.46853780658932
3639.9885,6.342322656958123,42.62600347118276
3640.826,6.348676291828224,40.52958232271821
3641.6653,6.353079273333861,41.51468549187399
3642.5032,6.355889693478946,37.41108136742864
3643.343,6.357338810675676,39.54645105964094
3644.1812,6.356806702439867,39.56830877272209
3645.0195,6.352820629662048,29.317545781445904
3645.86,6.343941129114507,37.2306238101242
3646.699,6.330300063126561,44.702703314021974
3647.5398,6.314305144599471,33.317709208081716
3648.379,6.300112540258057,35.3818450893824
3649.2202,6.291206624364728,46.52344582462886
3650.0596,6.288603806126581,50.60591550698177
3650.8994,6.290276042205195,44.18300481554658
3651.7412,6.292331739881611,51.054684527246884
3652.5813,6.290537016487853,37.753366856037864
3653.4236,6.281998888675594,47.12339715213443
3654.2642,6.26687788772809,53.557843612643005
3655.1067,6.24890016101395,50.04459349805533
3655.9475,6.234195860364079,44.81124728405065
3656.7886,6.22819669262895,37.90727652022579
3657.6318,6.2334884026231,39.21483233614982
3658.4734,6.249009153385476,46.60335905370581
3659.317,6.270885017669473,43.48133720068645
3660.1587,6.293602309439484,36.30710754026365
3661.003,6.311885207313479,52.766397999159715
3661.845,6.321376557483865,30.72418355109907
3662.6875,6.319228891211642,30.979496167541345
3663.532,6.303751250506223,48.66118216433005
3664.3748,6.2750621833950015,38.023697409166516
3665.2197,6.235712527485471,33.361903036938344
3666.063,6.191753710056374,50.50787041098017
3666.9084,6.1512518965698115,42.93971730468803
3667.752,6.122662736359039,38.470145562128394
3668.5977,6.1112035203961685,37.388717672063535
3669.4417,6.117391909909292,41.514480237618656
3670.286,6.136738538944243,54.4399601362768
3671.132,6.1616732557816265,45.898947627444024
3671.9768,6.183871596231728,31.67215519755414
3672.8235,6.197027787753251,39.451350272923975
3673.6685,6.198077954576527,37.26443338125507
3674.5156,6.187758684204933,29.958984723468905
3675.3608,6.170000172900056,37.95985249993507
3676.2063,6.15034648594333,45.18520996306134
3677.0542,6.1339155309771565,41.45225022525874
3677.9,6.123774063999079,35.6010760002934
3678.748,6.120298174533287,59.67825395443632
3679.5945,6.122269466691704,38.8241381639894
3680.4429,6.1275545339525825,48.082088895534504
3681.2896,6.133088949096173,29.42332602316949
3682.1365,6.135124196129711,48.32012027737857
3682.9856,6.1308140878068995,52.66388027631241
3683.8328,6.120738872051991,32.702881058044184
3684.6824,6.109370719311448,53.402362042251575
3685.53,6.10232407888287,56.05778654703866
3686.38,6.10201936483292,30.785612690675382
3687.2278,6.106506947674119,38.49056836674164
3688.0762,6.112164131508823,27.0060411670371
3688.9265,6.117155326591117,38.822501207654454
3689.7751,6.121897714739993,44.870852243675664
3690.626,6.126897603073439,38.92246126774993
3691.475,6.13088384156339,43.23088233289363
3692.3264,6.131567731379498,31.587608490386636
3693.1758,6.127604664155696,57.33514949487893
3694.0254,6.119771738450382,59.66844381970685
3694.8772,6.110448243266243,39.1196553897473
3695.7273,6.102262832762937,41.17362173766028
3696.5793,6.096484637872948,45.73882770694904
3697.43,6.092472510344931,34.99228755115196
3698.2825,6.088115079213074,39.946098363343765
3699.1333,6.081294840228413,46.190918641599545
3699.9841,6.071074265516229,46.971443931296584
3700.8374,6.058090491310142,57.37944986330444
3701.6887,6.0440292877719415,69.27661569184107
3702.5425,6.029879509533705,53.03852242415046
3703.3943,6.015083386688539,41.05483379400877
3704.2483,5.997989290577709,38.29971453726995
3705.1003,5.978433919097448,49.39283255376924
3705.9526,5.958746273418464,47.21967580787828
3706.8074,5.942371059712426,45.54742859089906
3707.66,5.930916919783818,45.24405556138537
3708.515,5.922218108142388,44.369183927971676
3709.3682,5.911925285111023,54.3634977788614
3710.2234,5.896414192570889,50.24976420941041
3711.0771,5.87553590561152,45.40376616070706
3711.9307,5.852881685417747,48.5666508974937
3712.7866,5.834253519796151,50.949665966709226
3713.6409,5.8253694923756525,56.19988294475874
3714.4973,5.829333739817132,46.613879260399514
3715.3518,5.845505311360497,39.5413536694913
3716.2085,5.869572516715577,75.65739888737097
3717.0635,5.89455820201654,57.62300044366787
3717.9185,5.913537205384773,55.82545892957809
3718.776,5.922248840536681,52.30317088513123
3719.6313,5.920865732310538,34.500912130380186
3720.489,5.913442848522978,49.99956554312975
3721.345,5.904763567077071,42.8142188923296
3722.2031,5.896845966047833,45.81796921639853
3723.0593,5.888115285664123,40.431324998942756
3723.9158,5.8754893385347815,53.45964650021319
3724.7747,5.8577309353761144,37.50724755327395
3725.6316,5.837145048469063,53.81238100920945
3726.4905,5.817886837393532,52.588827738930604
3727.348,5.8036350429776675,52.86847433560895
3728.2073,5.795787189821701,42.45032165184102
3729.065,5.79396087512065,49.38414618769297
3729.9229,5.7967349060830795,39.42127318102775
3730.783,5.802188755871989,38.96855526107376
3731.6414,5.808067097942459,50.007248987245404
3732.5017,5.812418924230516,47.78224499749231
3733.3604,5.814208968583737,42.47204697916716
3734.2214,5.813663248065524,59.274485285607796
3735.0803,5.811889006126652,45.77638751642822
3735.9417,5.810332308538541,48.37917660404324
3736.8013,5.810710649938791,45.158891572392
3737.661,5.815084966613791,60.94466402544954
3738.5227,5.825087814288455,54.60153411525826
3739.3828,5.839982483412262,44.18289151135257
3740.245,5.855849913991451,48.80946935665677
3741.1055,5.866931419544997,48.497203331677184
3741.9683,5.86913393119082,48.082514874232736
3742.829,5.862172182538191,54.312791335806494
3743.69,5.849467220128209,52.7563517461446
3744.5532,5.835909061612386,67.2625284847175
3745.4148,5.825370206457904,45.05781593192451
3746.2786,5.818617351546857,54.410408689611565
3747.1404,5.81352397139163,51.04813061941715
3748.0044,5.807061251533153,42.091436779388644
3748.8667,5.797990696749225,51.491997554356956
3749.729,5.787257834057762,53.21651777363026
3750.5938,5.77612031315987,57.752086643353095
3751.4565,5.764577223697345,28.077008203587795
3752.3215,5.751844377347884,43.51607339734093
3753.1848,5.738510159866653,75.35381048106815
3754.0503,5.72689228534112,57.60299875520979
3754.9138,5.719898394317981,40.9380022601188
3755.7776,5.719116061354933,41.92870883042836
3756.6438,5.724264493671381,40.57557898844921
3757.508,5.733405952342535,44.95079365614771
3758.3745,5.743697370804285,40.69036581570077
3759.239,5.751800581961775,49.96623080102779
3760.106,5.754645339211839,47.85651511315046
3760.971,5.750241330995653,36.57819109353866
3761.8362,5.7387036298001295,47.1714985186131
3762.7036,5.7223148253818925,50.28260477304508
3763.5693,5.704798749480194,40.834552623835044
3764.437,5.6895587826035285,53.29128280142047
3765.3032,5.678380202882624,50.356248281540836
3766.1714,5.670147129072837,49.1752733952877
3767.0378,5.661367109276178,49.614379178942855
3767.9043,5.6480939309518625,51.095826705125134
3768.7732,5.62843598076515,48.218338283584536
3769.6401,5.603932217800885,66.58690288325039
3770.5095,5.578558294503432,47.64848259951965
3771.377,5.557664214976636,44.71194393963939
3772.2466,5.545837533984973,58.32086554778103
3773.1145,5.545534177163754,50.31737939515929
3773.9824,5.555610505221034,53.49913739889311
3774.8528,5.571850125997177,45.899861983639
3775.721,5.588900047096447,56.33335336889445
3776.5918,5.603320541247047,65.48054389841502
3777.4604,5.614780473335448,55.09859386455771
3778.3315,5.6256520453346965,49.53672866336474
3779.201,5.638119538853786,51.53595727510691
3780.0703,5.651646745169432,40.18525907421104
3780.942,5.662490547037101,66.41587104396089
3781.8118,5.666416296466714,38.732727836822555
3782.6838,5.662691350835376,43.613211449517145
3783.554,5.6550320892024315,57.54481991567019
3784.4265,5.648268420416584,61.57904162351754
3785.297,5.644065477072069,61.24400410421635
3786.168,5.639945681528429,60.31696256787948
3787.041,5.632580067732684,53.74350416786719
3787.912,5.6212604350134745,61.50366834911994
3788.7856,5.60784154401325,47.89354737875355
3789.6572,5.594439338700353,48.18918903982418
3790.531,5.581291720076585,38.685560108853
3791.403,5.567220647394819,51.41766777248039
3792.2754,5.550460130828108,54.97181999228264
3793.15,5.529171557836812,61.226608864555644
3794.0225,5.50185682978493,50.763136108918324
3794.8972,5.467818047214206,52.49944024071151
3795.7703,5.428602828107031,71.99308401602136
3796.6455,5.387312005832941,48.73213188056243
3797.519,5.348247151751168,61.56583519274228
3798.3926,5.31535083952307,60.46495970172969
3799.2686,5.2920640486515635,64.10425336245129
3800.1426,5.281117428553898,60.863898210757256
3801.0188,5.283685896721215,55.49263238577347
3801.8933,5.299260209079681,53.61792581610323
3802.77,5.3258141549493105,59.98736186886295
3803.6448,5.360244911840109,43.73220685535563
3804.522,5.399775937966772,44.48980680404467
3805.3972,5.441661693486144,66.82672886691725
3806.2727,5.483416189730995,52.109812958570345
3807.1504,5.5221569036261755,50.61270565698488
3808.0261,5.554913699411114,46.50172519086809
3808.9043,5.580159046764665,57.0920951762175
3809.7805,5.597406777381738,59.5098423919483
3810.659,5.607454987324594,52.82234476355709
3811.5356,5.61223712514184,56.246113261757124
3812.4126,5.61535487176617,48.17712587453735
3813.2917,5.621142748358224,51.0505762246637
3814.169,5.632557423716621,57.86173743111394
3815.0483,5.649801228417,57.70379015832221
3815.926,5.670485181268594,53.295048683422145
3816.806,5.691229810972262,55.55298877231717
3817.684,5.707988905880819,43.03458453925545
3818.5623,5.716432375985963,45.68152662058128
3819.4429,5.712559928698502,44.863685394330965
3820.3215,5.69465481983966,57.01232309316026
3821.2024,5.664559321066978,52.28302868068026
3822.0815,5.627418565872835,48.627922035417
3822.963,5.588805099907133,55.96559042128423
3823.8423,5.5526277711413865,46.60418406961921
3824.722,5.519001323847178,57.267163267561266
3825.604,5.484784555685766,49.02973908943841
3826.4841,5.445511114218129,60.66634847052529
3827.3665,5.397159709628299,58.591336110904585
3828.2468,5.338946106333117,61.35481253153303
3829.1296,5.272900258890989,48.751884428360114
3830.0105,5.203637477806691,57.84313654861507
3830.8916,5.134836844893822,56.609450758723085
3831.7751,5.0678063895059315,68.68902867941718
3832.6565,5.001855612648718,71.6287313146099
3833.5403,4.935074804474804,69.58889352991817
3834.4224,4.868931138808861,68.00441003410585
3835.3064,4.809361768521921,79.47262541110597
3836.1887,4.767020488158027,75.66818238059031
3837.0713,4.75195776320657,98.56259809386154
3837.956,4.768749510953762,78.2052146952066
3838.839,4.8136526969394104,64.16245243872014
3839.7244,4.877572743082708,58.88529638347656
3840.6077,4.9507536331507485,55.66829397443123
3841.4932,5.027497787032657,63.965822732091596
3842.377,5.104358748849138,42.20879800087746
3843.261,5.17880025380746,59.567834393378526
3844.1472,5.247695843609595,66.490724300311
3845.0315,5.308246238091172,62.98274933258374
3845.9182,5.360610772265992,68.8254986990132
3846.803,5.406603513311881,45.44493971022264
3847.69,5.44943387300427,52.599721594216405
3848.5752,5.4917502681269275,40.637564251567845
3849.4604,5.535860740749042,42.4663111100205
3850.3481,5.582854178537906,58.7680635822786
3851.234,5.631038727138619,58.771571271326835
3852.122,5.676249649112505,50.516189173546046
3853.0083,5.712439550974057,42.845612479997385
3853.8967,5.735675318067848,55.93091078112062
3854.7832,5.746089275851041,53.17650142989863
3855.6702,5.748405754813132,67.15730030154883
3856.559,5.749322501331327,43.321064580127086
3857.4463,5.75424705512349,57.58020110179522
3858.336,5.764654648934684,52.502650870681656
3859.2234,5.777269942208256,41.374665842983184
3860.1135,5.786260922267468,48.098538089501275
3861.0015,5.786875355158394,46.747575174606006
3861.8896,5.778693081890489,44.686516101766685
3862.7803,5.7654259569948785,52.64886223574146
3863.6687,5.752244488621077,51.49451768424893
3864.5598,5.742318184960199,53.91141023847904
3865.4487,5.735695954131917,46.59297129847781
3866.34,5.729873938221845,58.93644182195577
3867.2297,5.7218176185011025,45.04923270072607
3868.1213,5.709482194783914,39.180585061756545
3869.0112,5.692503249591654,44.364406162854124
3869.9014,5.671173713298317,52.73429734462427
3870.7937,5.644980550727861,44.796638627259625
3871.684,5.61225626696832,51.42446210390256
3872.577,5.5709593789350285,51.27639952928385
3873.4678,5.521402209043179,64.41929470790826
3874.361,5.466177293307674,49.46127166517639
3875.2524,5.409480376291769,76.12249717430333
3876.1438,5.353419289384405,54.84111016821177
3877.0376,5.296681021882715,67.03360970014262
3877.9297,5.2356812354740745,60.61644459597654
3878.8237,5.166114098029298,55.74579417210448
3879.716,5.086561512112318,47.01069141246841
3880.6108,4.998363129665947,66.39582696134285
3881.5037,4.906125348945049,62.7069673088679
3882.3965,4.81389504083326,91.18403832469753
3883.2917,4.723324225773257,64.03463032526449
3884.185,4.633465931678985,78.11118651342416
3885.0808,4.540016933146034,59.713051070598894
3885.9746,4.439134447443387,79.17569484312496
3886.8706,4.328202931350737,82.71961882702007
3887.765,4.210537367701802,83.73861766406849
3888.6592,4.09560354428345,119.41949578384904
3889.556,3.998767776087973,99.80039626618927
3890.4507,3.937659488007244,110.11305583019214
3891.348,3.9242652964760465,139.65122362718319
3892.243,3.9609059332086543,100.70555659903418
3893.1406,4.039242648222912,94.39627940984866
3894.0361,4.143503427532217,101.56210857222624
3894.932,4.258049974098371,105.29109533892199
3895.83,4.371842468932389,87.69050536477262
3896.7263,4.478844253854266,75.21379235602704
3897.625,4.578157986464554,69.6062212234397
3898.5215,4.669417715203427,58.70400279901335
3899.4207,4.753665177002499,67.41672167134755
3900.3176,4.8317384211227825,98.36996073638441
3901.2148,4.906542911718806,58.60435762847228
3902.1145,4.9819402509546045,66.66467530331195
3903.0122,5.060664022303252,55.63272673407174
3903.912,5.143774808536054,73.41791510976546
3904.8103,5.228593587140656,64.97207949896135
3905.7107,5.311363720526753,53.79818899840164
3906.6094,5.387864411934914,58.066656361008675
3907.508,5.455931359996085,51.34675479923425
3908.409,5.514817362958738,57.85664656938888
3909.308,5.564197056654757,51.39399332841587
3910.2097,5.604889988380682,48.06622964606041
3911.1091,5.638381694053826,39.047836668594684
3912.011,5.667813582641977,43.011442927206026
3912.9111,5.696238533708832,42.92190347794177
3913.8113,5.725282561699143,55.94354769452764
3914.7136,5.754145927846914,41.08533463124825
3915.6143,5.780835277042641,52.41814178114557
3916.517,5.805020208011984,42.524920110986265
3917.4182,5.828421314345836,44.68010268979997
3918.3215,5.853767425817072,44.782306921216936
3919.223,5.882357596961873,44.272306041089735
3920.1245,5.913850413349559,48.411175010234764
3921.0286,5.9467753789167785,41.58753126191582
3921.9307,5.9789574056708386,46.029732576550984
3922.835,6.008428396099174,39.74781927984133
3923.7373,6.033497635788136,42.73376822598855
3924.642,6.054110453947108,47.71512863821818
3925.5452,6.071299352172445,41.84102418448067
3926.448,6.086241496066299,42.090634119147126
3927.3535,6.098909493434439,49.52565433054561
3928.257,6.1081518835470785,44.318235138411275
3929.1628,6.113156565036598,45.90232203831328
3930.0667,6.1141808264567485,48.51292582918323
3930.9731,6.112408881675305,39.27860512888556
3931.8774,6.108917807322443,45.328353243966376
3932.782,6.1037173720688696,39.53209617425773
3933.6887,6.095556298882254,51.51324518419932
3934.5938,6.082821994163848,34.732953571166426
3935.501,6.064770009978993,48.963962311061124
3936.4062,6.042588226754509,40.85940423117281
3937.3142,6.018482350072935,43.31973911306271
3938.22,5.994394917028793,43.659108024008084
3939.128,5.9700118940137115,38.44912113276213
3940.0342,5.943153917235346,45.041704791302564
3940.9407,5.910883572819985,54.4662987156927
3941.8494,5.871579471127349,49.346514890050166
