wavl,flux,ivar
3566.9744,3.863701050767196,19.895606162335678
3567.795,3.8334471915054906,25.285504635274272
3568.6177,3.805490509683078,22.300402405123496
3569.4385,3.7880204032277547,25.66892059872514
3570.2617,3.785649248392927,23.452163148270756
3571.083,3.7980305248773973,32.645712747693814
3571.9065,3.8205856693058156,21.29366371570662
3572.7283,3.8468586253877426,27.96379773168147
3573.55,3.8713338067370815,26.65193057852722
3574.374,3.890160196882493,21.36930574267275
3575.1963,3.900511587806944,26.745792003108985
3576.0208,3.9008990321065786,22.157389589643692
3576.8435,3.892413926805834,25.120511019710058
3577.6682,3.8797567382981506,31.37330702355266
3578.4915,3.869479665066783,23.626527064877966
3579.3145,3.8657398537397643,35.3910540254081
3580.14,3.8681182717135165,25.6804873420304
3580.9636,3.873924139190163,30.274422962167385
3581.7893,3.882760673418069,26.77872668258264
3582.6133,3.8974430074676056,27.232793313532447
3583.4395,3.92008345848461,20.467528828914244
3584.264,3.9478106471058823,32.13106380981274
3585.0884,3.9748195954362977,22.158016491851235
3585.915,3.997673627576875,20.22756732526795
3586.74,4.016761907661807,18.31945886611553
3587.5671,4.031960278142702,30.020367926376842
3588.3923,4.037952884019557,23.226094583944324
3589.22,4.027463695087794,20.723800102526177
3590.0457,3.998578418372471,27.826562264107615
3590.8716,3.957460833202443,25.354410275805776
3591.6995,3.9137929150424786,26.44842562831143
3592.526,3.875220994240534,26.44744268822335
3593.3542,3.8451558422235506,34.56372006819922
3594.181,3.8251861467014354,17.357766747602277
3595.0098,3.8157416533928483,35.09799371376701
3595.8367,3.8157290795458363,29.167887393570194
3596.6638,3.821460622051154,27.44691890052917
3597.4934,3.827426763806784,30.626758107033705
3598.3208,3.828490650975228,20.04146773851937
3599.1506,3.822689567024983,23.278644573451793
3599.9788,3.812416897120153,29.48814217977835
3600.8088,3.8032829839611884,35.46953962297681
3601.6372,3.8022536316833944,25.96757644276246
3602.4678,3.8158063792916126,37.70072326814653
3603.2964,3.847402320824813,22.350406494250574
3604.1252,3.894231364992864,32.67825222840413
3604.9565,3.94599736409788,29.386735982153542
3605.786,3.9884261087888953,27.33111088600932
3606.6172,4.011323248418338,27.760331148502775
3607.447,4.012155854918958,29.283984312754622
3608.2788,3.9953567375603494,22.896469892604436
3609.109,3.9684694487541483,23.06042686237253
3609.9392,3.9385205645545405,18.6431248398061
3610.7717,3.909799478692888,22.40873962349707
3611.6023,3.8835176201832886,14.853485639823255
3612.435,3.8592515666407348,21.416037152451793
3613.266,3.8383181810715077,30.08892596913435
3614.0994,3.8236041372850815,28.731238846700183
3614.9307,3.8169920856298365,20.17205456134955
3615.7625,3.8167182783089113,26.154457085375853
3616.5962,3.8188318314903444,28.241827236475515
3617.4282,3.81992253048851,34.051054575118386
3618.2625,3.817503444494197,28.67274338928245
3619.0947,3.808434639071883,30.323902005244367
3619.9292,3.789590024248729,27.48705758081046
3620.762,3.762007497576976,29.767543271779655
3621.595,3.732664645684493,32.277888522592185
3622.4302,3.710492127057478,35.27488708496639
3623.2634,3.699518593611043,35.516692311508095
3624.0989,3.696114822576987,28.05070950431388
3624.9326,3.693992449190017,27.983131731375675
3625.7686,3.6904223046954163,31.094682420733484
3626.6028,3.687348657000687,33.66891347583166
3627.437,3.6867333794082566,26.06961607027033
3628.2734,3.6864269712407958,33.54391617234274
3629.1082,3.6814995599180964,19.376829558886847
3629.945,3.6693225799290428,34.685077389453
3630.78,3.6523884042034958,31.355832818960717
3631.6174,3.6352508931100007,28.008280338168262
3632.453,3.6199552589167308,31.982066858706727
3633.2883,3.6041203697091277,21.642578328722937
3634.1262,3.5836297212022483,29.821473506683265
3634.9622,3.5562680692929534,29.303841980878254
3635.8005,3.522633502522957,33.73546463575993
3636.637,3.485991332182186,28.091381246276526
3637.4756,3.450681277695812,31.9733811028681
3638.3123,3.4223067480590235,39.07480573369715
3639.1492,3.405777607999643,44.24714846325158
3639.9885,3.402798842843821,33.97008136493251
3640.826,3.409550028969034,30.63744931157961
3641.6653,3.418405922060128,34.719885213818365
3642.5032,3.4230564908392793,33.49034692436237
3643.343,3.4224487394437033,32.31862546085925
3644.1812,3.419680302844831,34.415686073632905
3645.0195,3.4174417364892595,33.097784748764035
3645.86,3.4143586995982003,27.601880724814837
3646.699,3.4055709882845946,32.335300808335944
3647.5398,3.387298015698929,32.98945607581682
3648.379,3.3621661829334326,33.57152965116009
3649.2202,3.33969786474244,33.54878476291022
3650.0596,3.3313673091111515,32.251732075011724
3650.8994,3.342575609836508,33.09651013105377
3651.7412,3.3691788401441696,34.61790442523748
3652.5813,3.399911610587777,24.813746607203534
3653.4236,3.4234429930680985,31.65286780837707
3654.2642,3.4335577493046183,33.24120978828325
3655.1067,3.4310764567899557,32.232170633391014
3655.9475,3.421106116686537,32.526285603960055
3656.7886,3.4088922706286287,28.911029032867873
3657.6318,3.397271436646691,29.769278330387607
3658.4734,3.387119745748949,37.83133453950005
3659.317,3.3787173623943976,27.794568602203682
3660.1587,3.372464771889958,34.1888866593704
3661.003,3.36798683616835,28.67688247215917
3661.845,3.3635583663861697,33.33183969978109
3662.6875,3.356713925994779,26.873309708151844
3663.532,3.346539130940199,34.81126634222165
3664.3748,3.3356859213802927,26.16491400704754
3665.2197,3.3289090404174524,44.32302095392842
3666.063,3.3285677298805316,35.21976589778931
3666.9084,3.3311698300644195,32.14285841619063
3667.752,3.329884794411701,31.57681279421089
3668.5977,3.3209857917561685,37.13049236545596
3669.4417,3.307531739388746,30.92126711821953
3670.286,3.296178295857464,35.42187489831695
3671.132,3.2909845199012717,36.99097411886449
3671.9768,3.290446504101318,36.62635841988271
3672.8235,3.289862856717306,40.80475595824728
3673.6685,3.2855373600487523,32.34552244922612
3674.5156,3.276414026534398,36.36038800714968
3675.3608,3.263178081495961,24.08532728653516
3676.2063,3.2467448495132283,36.501165206027466
3677.0542,3.2277242468802623,29.46752732995974
3677.9,3.2065822316140253,27.741982608231822
3678.748,3.1836512224887477,37.01286994943495
3679.5945,3.1603041718728777,40.97097157893078
3680.4429,3.138703966073059,48.44783095251193
3681.2896,3.1212169970122114,33.489612692242225
3682.1365,3.1090644056301597,42.15047967982554
3682.9856,3.1029594017910114,35.075748930616975
3683.8328,3.1042691004526026,29.366669144865305
3684.6824,3.114530871110358,37.02431175008078
3685.53,3.1328792849544755,41.96064613498775
3686.38,3.1543956484156404,37.49809244614244
3687.2278,3.1715561641916157,39.32287663244741
3688.0762,3.1790974631689837,33.65081779606914
3688.9265,3.177026243293001,35.84694259189354
3689.7751,3.1698531927607916,34.00475338970415
3690.626,3.1626227325351834,34.47035582358638
3691.475,3.1575067013173848,38.631211941951584
3692.3264,3.1528925319494934,37.511802521575035
3693.1758,3.1454923094682155,42.121046615406165
3694.0254,3.13377930098513,30.87771853266695
3694.8772,3.1205857615097807,27.355909457935255
3695.7273,3.11220759451308,39.47677607981256
3696.5793,3.113570611439937,37.19638997258484
3697.43,3.1238744470287085,33.76315176951316
3698.2825,3.136493575772306,32.23990822351117
3699.1333,3.1432468730181213,33.64569878603145
3699.9841,3.1396894262150807,37.12493294847648
3700.8374,3.1269650863723255,37.69333689786883
3701.6887,3.1100821782948946,40.39668325311385
3702.5425,3.0938549981327825,43.61761326956994
3703.3943,3.0803681891720203,40.981969933984594
3704.2483,3.0683102621356464,43.20852566942503
3705.1003,3.054849849219908,38.96421722911568
3705.9526,3.0375492157096926,38.67193064523073
3706.8074,3.015888175535001,39.65765334631386
3707.66,2.9915962311063677,43.20900763621444
3708.515,2.966973747052516,43.29886284267442
3709.3682,2.9437657002827975,36.82653811914038
3710.2234,2.9223439588496016,41.55960623097853
3711.0771,2.9036064814499176,35.93029948041876
3711.9307,2.890290456879534,49.422926210745345
3712.7866,2.8861655328787186,55.8239884107036
3713.6409,2.892513787245614,30.030006227020777
3714.4973,2.906025149908196,33.6403933950479
3715.3518,2.921724414477136,38.79623171806136
3716.2085,2.9388671297236355,39.56979846065381
3717.0635,2.9624730594394535,49.92602538184059
3717.9185,2.9987958654961835,47.8520373890775
3718.776,3.0485313451431706,43.07302968059892
3719.6313,3.103897108410966,42.1482639905325
3720.489,3.153231568075637,43.641159065179835
3721.345,3.1861883727500584,42.759520749956906
3722.2031,3.1988685450365013,35.34629181838148
3723.0593,3.1940805964641674,40.89339671402466
3723.9158,3.1792309692004603,24.107563454648044
3724.7747,3.1617517696459094,44.453908647185706
3725.6316,3.1452530996551102,43.618545635721766
3726.4905,3.1280863308940967,39.922155588505866
3727.348,3.1063392220164,31.628534098077704
3728.2073,3.0776791347098533,38.27321723203303
3729.065,3.0438951778633556,30.922954952620202
3729.9229,3.0093181216269036,34.69416286372133
3730.783,2.9781268942808286,43.22465695444932
3731.6414,2.9525641706701524,40.010063589386164
3732.5017,2.93232410600286,43.74401516458756
3733.3604,2.915745821037464,40.17092460437823
3734.2214,2.9000507633480974,41.52803919756605
3735.0803,2.8826172019097323,40.248125445464304
3735.9417,2.862682681806539,48.09780916439233
3736.8013,2.8438296230657323,42.38905226668949
3737.661,2.8333066451609383,47.87681467608384
3738.5227,2.8384641476036006,40.61018700011517
3739.3828,2.8617278193019597,42.08917148580993
3740.245,2.898308020172393,56.89918748281121
3741.1055,2.93767836969555,39.830364895281726
3741.9683,2.969034613311017,46.246103482531566
3742.829,2.985272066910657,36.48658315698526
3743.69,2.9853771299761585,42.3254802006778
3744.5532,2.9726213517492646,48.148094864206904
3745.4148,2.9521987307672117,40.907074960454416
3746.2786,2.929312713502115,39.62962008185745
3747.1404,2.909028754276268,38.299073307780326
3748.0044,2.8953707733959604,42.62435603056342
3748.8667,2.890433614449365,45.886834781986764
3749.729,2.893090582543278,52.63054054902243
3750.5938,2.899437845106889,52.174067270688376
3751.4565,2.9042733213407064,61.63717913847536
3752.3215,2.903281778419891,48.60489133948304
3753.1848,2.8949338852456665,57.42337119298817
3754.0503,2.8817105237648226,37.0803858045028
3754.9138,2.8695689590833475,52.07652062718188
3755.7776,2.86445824792893,44.62541682973221
3756.6438,2.8684946086096192,46.74054767749058
3757.508,2.8786554205151815,40.80353391814561
3758.3745,2.8892771732624762,38.02043205219531
3759.239,2.894982825717202,48.31213863414732
3760.106,2.891875549268706,45.59367507196624
3760.971,2.877451334252709,43.108662481871434
3761.8362,2.8516135781372998,44.494212816317756
3762.7036,2.818144919326078,42.6966570324696
3763.5693,2.7845731755993453,46.06332485024883
3764.437,2.758130765276473,58.3323681282492
3765.3032,2.7419779037001337,50.86390552082035
3766.1714,2.733516377917761,51.15083132135676
3767.0378,2.7279285976703194,49.700122440542245
3767.9043,2.7231245963101522,48.24525444854689
3768.7732,2.721888571127328,43.898700653545966
3769.6401,2.7288295927588377,44.319566399733
3770.5095,2.7452409968051588,44.01616134607401
3771.377,2.7665483517981264,54.5905082407555
3772.2466,2.784872492120767,42.03567760207221
3773.1145,2.793462416102214,53.36331357231761
3773.9824,2.7907048063028044,51.75133602077359
3774.8528,2.780581819430656,45.31363149172813
3775.721,2.770512552339245,41.09490731000454
3776.5918,2.76725816577693,41.84530533649298
3777.4604,2.773782474157025,49.1421275327026
3778.3315,2.7884649423183387,52.681668455288936
3779.201,2.8067737771944903,34.77766890567711
3780.0703,2.8238486645592977,40.64002416678064
3780.942,2.835647031957108,42.12525236177628
3781.8118,2.8390486367686796,37.76805833799916
3782.6838,2.8324654568564696,41.15390862839839
3783.554,2.8168539736496356,45.38514386029682
3784.4265,2.795856914330576,42.16143036408537
3785.297,2.774328559288807,47.92575067069326
3786.168,2.755169141500874,39.51468761414158
3787.041,2.7381188807896795,56.759640916391966
3787.912,2.721383640560352,48.661084572934556
3788.7856,2.7044766814083396,50.94735920742253
3789.6572,2.6902747265814444,50.46621612582191
3790.531,2.6832239032851364,50.827724902194106
3791.403,2.6860108654377783,41.82087331365126
3792.2754,2.696717893165604,48.86733990904212
3793.15,2.70927804154575,36.69594016361964
3794.0225,2.7165660222445447,41.18600069424343
3794.8972,2.7144808097610564,53.156664441989044
3795.7703,2.7037679912670263,49.546083164212554
3796.6455,2.688855980925822,43.61630456652302
3797.519,2.675093046781406,47.83616823727749
3798.3926,2.6661375034195522,59.26583139840693
3799.2686,2.663283573689493,49.58911873424151
3800.1426,2.665556279862763,49.798303345987954
3801.0188,2.670051615573285,57.43670157431347
3801.8933,2.6734542438058995,56.29173905529239
3802.77,2.6755843724287427,53.76560902898822
3803.6448,2.683006606856587,56.11360740967466
3804.522,2.70915205426391,50.66831457715398
3805.3972,2.768063622019461,38.87410170927856
3806.2727,2.8647161673983406,51.23697900367728
3807.1504,2.9867110903995187,46.78928342012962
3808.0261,3.1026746285720477,48.83096061226289
3808.9043,3.1750617257762856,49.78115037030386
3809.7805,3.1766607482633984,4.711964159449292
3810.659,3.1066826251010315,50.679528871936256
3811.5356,2.990899517889527,50.50167441538657
3812.4126,2.865917213164642,55.563942355054955
3813.2917,2.761286078011181,53.011107617792135
3814.169,2.691314976313752,54.870715269471006
3815.0483,2.655430554531576,62.518576973289136
3815.926,2.645324490863204,45.16558305893131
3816.806,2.6485794763690107,47.24535676904506
3817.684,2.6523690001953284,49.17048676272981
3818.5623,2.647586444744567,56.58957456494609
3819.4429,2.632406609006375,56.75998342735031
3820.3215,2.612419647930199,48.51571837369058
3821.2024,2.5959371306935495,54.43540675405612
3822.0815,2.5886306871706295,53.40762581273984
3822.963,2.590359142799841,54.80274630296006
3823.8423,2.596342262658141,45.80622035933527
3824.722,2.600573039597516,52.837350691447334
3825.604,2.5989667596931225,52.41354238327046
3826.4841,2.5905055625751108,57.86137425527909
3827.3665,2.576361414484096,57.041308883282234
3828.2468,2.5588984725809074,54.47111365331272
3829.1296,2.541017662041664,56.50756983995195
3830.0105,2.526080344264325,55.6976094524042
3830.8916,2.5164460419252035,53.75552329959095
3831.7751,2.5126622697472882,51.710026949645126
3832.6565,2.5139814490862213,48.47389540954345
3833.5403,2.519768416099541,46.87737283878301
3834.4224,2.5296347705524034,72.68768200712194
3835.3064,2.54196862633279,59.838534757080986
3836.1887,2.553042607496311,42.49882242969794
3837.0713,2.5593031016658263,47.56771073942694
3837.956,2.560581689447779,63.22276319768231
3838.839,2.561052476832147,54.8325753140144
3839.7244,2.5665490146128467,57.09954848266925
3840.6077,2.580211756490856,53.05458684967912
3841.4932,2.599658167256599,58.368250909052804
3842.377,2.616975466135139,49.4514236129548
3843.261,2.6229728456708963,56.45142037725697
3844.1472,2.612964946895946,50.102433135858426
3845.0315,2.5906006921609874,60.257245368745544
3845.9182,2.5653277979922136,62.308854235840975
3846.803,2.546226298502546,68.81297702420109
3847.69,2.5370086158091603,68.92331466036005
3848.5752,2.537184771048263,59.480372336267834
3849.4604,2.5452771446571454,58.99537641360317
3850.3481,2.559994599833147,50.11616119834495
3851.234,2.5780748926028614,55.81514099967961
3852.122,2.5933932512087847,50.5402434591908
3853.0083,2.5990361424566557,52.2916499892827
3853.8967,2.5917069392577066,48.3544024444056
3854.7832,2.5737978635972203,62.22504928853203
3855.6702,2.551752292796487,64.64244234366103
3856.559,2.532282197763394,63.75975185745182
3857.4463,2.5190216367631058,58.019034395913025
3858.336,2.510997089277115,66.25601267338477
3859.2234,2.504297902346699,45.13997597064611
3860.1135,2.495062422496975,51.129111114663104
3861.0015,2.4823590606220183,64.85837237814819
3861.8896,2.468171016302661,60.27505705854963
3862.7803,2.4552876716674588,64.08594008573859
3863.6687,2.445274582446026,74.89441547739793
3864.5598,2.4379508002111696,58.22234058639584
3865.4487,2.4325989740869103,52.80308472135499
3866.34,2.4286260644819837,53.8162859498146
3867.2297,2.4260329907139964,57.826302232961304
3868.1213,2.425485982024234,72.38899234675313
3869.0112,2.4278556284609984,76.84165622755201
3869.9014,2.4328579069110483,60.60611604348968
3870.7937,2.438299710555435,48.156237118540915
3871.684,2.4411660914798254,58.709503420798995
3872.577,2.4396959819362585,56.4949917637141
3873.4678,2.433927586971083,63.7710904095586
3874.361,2.4245671115583702,71.55199634079429
3875.2524,2.4122447677672736,58.38554918616166
3876.1438,2.397967754643558,85.45804301382913
3877.0376,2.3840721262283444,57.4104247032551
3877.9297,2.3737946506098084,66.87975523117892
3878.8237,2.3689099168850642,63.10720509027122
3879.716,2.367911181722341,60.912690796693965
3880.6108,2.365937268490006,65.07276884086315
3881.5037,2.357155554209725,53.08811870138914
3882.3965,2.3380882776381613,44.112136105071315
3883.2917,2.3099091388449993,68.72794197826384
3884.185,2.2784047391668514,78.1438592508443
3885.0808,2.250213955135665,69.59267110913704
3885.9746,2.229383453487419,80.89664645182962
3886.8706,2.2153227812941654,77.30589546107981
3887.765,2.2051941811075855,64.83241643264553
3888.6592,2.1969291724800413,76.12973663526175
3889.556,2.190717058823018,72.24258814419433
3890.4507,2.187780428591792,72.79396443766089
3891.348,2.188495643294068,67.58736879479454
3892.243,2.19223527118227,74.96674345758153
3893.1406,2.198553925274496,76.21577075180215
3894.0361,2.207995000400665,82.46496385550573
3894.932,2.2218850120157483,69.31051135166435
3895.83,2.2412670561385695,63.96072060895915
3896.7263,2.2656556544504163,62.55297791999361
3897.625,2.2928928912204856,67.32995008520378
3898.5215,2.319188174881966,72.7366297435406
3899.4207,2.341149736466685,71.46890180857008
3900.3176,2.3568685380464203,81.43734855433658
3901.2148,2.3668643115383134,65.12403533182544
3902.1145,2.3729637392818392,59.77037867346477
3903.0122,2.376891587246215,63.2200448200636
3903.912,2.3795938296062498,57.458048520828626
3904.8103,2.381667201967269,54.20794998706886
3905.7107,2.3845035108294432,54.10909562581167
3906.6094,2.3901495871671217,73.63490048599695
3907.508,2.399328411767141,68.84381992620484
3908.409,2.4094765270597147,71.90444578422529
3909.308,2.415567594878032,54.04460727090328
3910.2097,2.4140054501877457,77.70098012834825
3911.1091,2.4056475656880267,49.18394053842148
3912.011,2.3951934432638193,64.91967341884522
3912.9111,2.387930076079989,60.7639099080251
3913.8113,2.386650168342043,63.45126795305802
3914.7136,2.39105817893537,66.27916277890753
3915.6143,2.3984509218960026,61.45048925428699
3916.517,2.404882946374654,66.64498469301208
3917.4182,2.4064898669092423,49.07983808184401
3918.3215,2.401409029267061,56.97450639053867
3919.223,2.39106272786061,59.91646540647734
3920.1245,2.3795215155771325,61.1418909568399
3921.0286,2.371073886430882,64.89862491216272
3921.9307,2.367678454823987,59.74917519981362
3922.835,2.3681530627248986,57.57246703260323
3923.7373,2.369906205108185,72.22211223410162
3924.642,2.3711135939545005,74.01369246316324
3925.5452,2.371447079478864,71.20550260982711
3926.448,2.3713714448561474,70.24774053374692
3927.3535,2.3712719587049347,62.15155275743018
3928.257,2.371096631240273,83.43972802846548
3929.1628,2.3701170492285986,63.734137974132736
3930.0667,2.366879636233917,73.64701785010114
3930.9731,2.359987719234767,52.009228953682516
3931.8774,2.349699438679158,59.49795191119935
3932.782,2.3384652079025607,71.17318627243328
3933.6887,2.3298451433613043,66.01993706993048
3934.5938,2.326733407333883,66.18023300295651
3935.501,2.3303049339990087,64.84294481003165
3936.4062,2.3400476498158036,72.12565098490069
3937.3142,2.3538329575336516,69.60761033932518
