wavl,flux,ivar
3566.9744,0.5077598253117546,455.42798946697746
3567.795,0.5072412747814209,498.63388568383033
3568.6177,0.5061635268862931,474.5406580671199
3569.4385,0.504637419852915,469.80919115847723
3570.2617,0.5029059696157394,534.7654314982885
3571.083,0.5012481262151733,525.3673756080947
3571.9065,0.499822324086703,461.0154883987393
3572.7283,0.4987089440858103,486.1610301391373
3573.55,0.4980331174580597,565.9499123935592
3574.374,0.4980176342962761,462.9243319224772
3575.1963,0.49876731601067137,516.7182854834858
3576.0208,0.5000751063014219,491.1870137492541
3576.8435,0.5015504567602881,492.2744888130988
3577.6682,0.5029718640401091,551.2958541531069
3578.4915,0.5043285694186069,545.838354563875
3579.3145,0.5055430304228216,536.5741712504896
3580.14,0.5062413972535562,508.5362267529843
3580.9636,0.5059791612211453,484.44291534261697
3581.7893,0.5047202488428661,449.6341456025435
3582.6133,0.5029886991679638,511.65155980619284
3583.4395,0.5014576732088667,561.4036256574719
3584.264,0.5004288886988588,464.1262375427231
3585.0884,0.49964499717988686,508.14920624470494
3585.915,0.49863996945614286,629.9101230858143
3586.74,0.4972121247664671,523.5273258626569
3587.5671,0.49556626022564293,587.5153532690211
3588.3923,0.4941061661989571,610.1324336256192
3589.22,0.4930635035091644,603.6518127962391
3590.0457,0.4923876586793347,566.2792509833057
3590.8716,0.49185145640031086,712.0922384855522
3591.6995,0.4912872418276015,541.7172622177663
3592.526,0.4907109009586307,509.6794947709959
3593.3542,0.49023528330750343,571.8216918112394
3594.181,0.48986796499365476,733.8947431707408
3595.0098,0.4893530153255759,587.4055268429265
3595.8367,0.48825259264115906,508.5999249204417
3596.6638,0.48624190996101496,617.6446555268526
3597.4934,0.4834864087778591,488.35001656364994
3598.3208,0.4808287655879354,610.8476424088271
3599.1506,0.47937143779153124,526.4779377419866
3599.9788,0.4797312961817907,504.0079051923654
3600.8088,0.4814420536538755,530.7847094066658
3601.6372,0.4832381761817237,594.5142170909272
3602.4678,0.48405931387073137,584.70675331963
3603.2964,0.4838161609930801,569.784325177861
3604.1252,0.4832770834114158,618.5690089813163
3604.9565,0.4832120149147788,558.0350780301476
3605.786,0.4836941988397785,594.6861711414297
3606.6172,0.4842012743394272,446.06767215619664
3607.447,0.48435397262061386,661.0683998475034
3608.2788,0.4844834294163095,514.8036440293441
3609.109,0.48535283800573004,634.8207339181795
3609.9392,0.487288278974648,607.2128335517339
3610.7717,0.48965513040082864,580.3461498983233
3611.6023,0.4912708186359749,390.1702519435414
3612.435,0.49143655101506045,496.68356897117394
3613.266,0.49044055562842925,559.5815038054664
3614.0994,0.4891306802590568,569.8478116312048
3614.9307,0.4880811104884884,557.1258801042003
3615.7625,0.48723484017075824,471.9976475009592
3616.5962,0.4863206343583589,523.1586373820351
3617.4282,0.4853960732799877,558.4456199898431
3618.2625,0.48485959985623905,652.7839661286318
3619.0947,0.4850031262715403,559.9564655554648
3619.9292,0.48562424644289265,524.7402271508224
3620.762,0.48612984669382964,568.3415920310739
3621.595,0.4859866307177067,505.13399373762945
3622.4302,0.4850583181303073,645.2291352195102
3623.2634,0.4836192259319247,692.2150989359409
3624.0989,0.48211284482964056,545.6555278471616
3624.9326,0.4809884523357432,527.5105254237222
3625.7686,0.4805906271836056,635.2606570662568
3626.6028,0.48105776061724376,475.2855023638817
3627.437,0.4821514422191514,647.3476575542269
3628.2734,0.4832762834119479,642.6243613431717
3629.1082,0.4837651354789193,695.5677785321298
3629.945,0.4832939142300789,440.69473335804435
3630.78,0.4820793309611589,599.6055777566322
3631.6174,0.4807324728201355,468.8335017029393
3632.453,0.47985531683375404,554.661893946555
3633.2883,0.47956039185915955,562.6072614241998
3634.1262,0.47935052077147855,717.0764882397589
3634.9622,0.4784604956230897,537.0584913061787
3635.8005,0.47641498915350333,660.4867494963315
3636.637,0.4734079300608762,689.2746909805771
3637.4756,0.47019265180128206,576.7310263029348
3638.3123,0.4677103345637541,730.2731150203892
3639.1492,0.4664980610740894,579.4773557234184
3639.9885,0.4664119062394985,690.8076650294748
3640.826,0.46679922305762284,525.7632254079783
3641.6653,0.4670385261442442,796.4617356209351
3642.5032,0.4669194031549697,674.5031044748795
3643.343,0.466570918809792,784.5841037849059
3644.1812,0.466203615446518,646.4884233406302
3645.0195,0.46603686416123075,532.5955227502361
3645.86,0.4663692292395367,616.5736361874013
3646.699,0.46745493393970106,678.584446381549
3647.5398,0.4691841503136348,547.7503850754541
3648.379,0.47090368935364735,775.0352141576774
3649.2202,0.47173650855201515,822.457055388834
3650.0596,0.4711062587866658,671.6217598638411
3650.8994,0.46904309193710864,612.356628383494
3651.7412,0.46598857724104614,616.7891815509922
3652.5813,0.46251888178053285,585.5009503260458
3653.4236,0.4592649740995434,485.6434413065265
3654.2642,0.45709180514913944,704.8885629781746
3655.1067,0.45680120782130174,720.0710851964301
3655.9475,0.45845968882985666,684.4197857320631
3656.7886,0.4609178541284974,636.9730557251743
3657.6318,0.46230555828801306,726.541846346535
3658.4734,0.4612847859047569,946.0070423409919
3659.317,0.4580976705189332,682.3623869300336
3660.1587,0.45450742705336605,609.8432817079622
3661.003,0.45259513091806175,567.7329045291333
3661.845,0.45340007652513825,877.7147641181206
3662.6875,0.45627374553629624,790.7670768435818
3663.532,0.45956844948651787,674.2562216819852
3664.3748,0.46194584853047416,774.5880196001584
3665.2197,0.46325240464075734,540.3760362340339
3666.063,0.4641049692473041,825.0133593137579
3666.9084,0.4649208670242426,769.230948560636
3667.752,0.4654312309869197,699.7076279497435
3668.5977,0.4651622462109137,642.9773120373552
3669.4417,0.4641399177100359,581.7711560212892
3670.286,0.46304155183798434,709.3239037657518
3671.132,0.46276533848141077,609.3036222970367
3671.9768,0.4639153523188972,591.3693293321647
3672.8235,0.4665124704903163,624.3461262345079
3673.6685,0.46989110967295217,637.5118444730641
3674.5156,0.47286289927309594,622.2782387145644
3675.3608,0.4741186039673006,745.6795759597816
3676.2063,0.47298124238522105,728.5863706266802
3677.0542,0.46984714405853867,653.6814055346175
3677.9,0.4660237399034049,689.5278180067685
3678.748,0.462799157427157,830.7094994257901
3679.5945,0.4606478600298056,707.2444281715206
3680.4429,0.459012968073588,754.7258125823508
3681.2896,0.4569923144724594,627.5717393731004
3682.1365,0.454161972061787,690.1506256754127
3682.9856,0.4509306015916541,618.4725102908619
3683.8328,0.44819227910447695,918.5542880160134
3684.6824,0.44657257530855804,786.3190007212013
3685.53,0.4460537479550028,707.9025863089012
3686.38,0.4460668138311528,756.4408634342476
3687.2278,0.44596361609135426,886.5294066091578
3688.0762,0.44540289210271616,668.5392891284854
3688.9265,0.4444651989553883,659.0486461220057
3689.7751,0.44353502395581484,752.6420786072333
3690.626,0.44306285754121266,808.4226884758147
3691.475,0.44340692992479885,705.449354359565
3692.3264,0.44475297906772465,779.1963457094123
3693.1758,0.4470515211764184,803.6961258690175
3694.0254,0.4499888831864683,616.3069227935935
3694.8772,0.4530403685136024,744.1276508505772
3695.7273,0.4556425499316929,873.6802604816901
3696.5793,0.4574669809618236,956.5184095226373
3697.43,0.458498224281622,931.0120508300653
3698.2825,0.4589986852120394,891.2495755819851
3699.1333,0.4592398167149231,643.2883944312084
3699.9841,0.4592701908880769,838.6748197928551
3700.8374,0.4589526284955092,797.0594605742908
3701.6887,0.45826649488784915,787.1228465362233
3702.5425,0.4574760627346445,668.254678914529
3703.3943,0.456980823142997,619.5205022997325
3704.2483,0.4570114979481027,860.8518495758597
3705.1003,0.45748150523822545,729.5752384101179
3705.9526,0.45798584136772513,783.5872398963604
3706.8074,0.4578897805098523,916.1840199213766
3707.66,0.45653903140279084,703.7230547633411
3708.515,0.45359803334291937,870.2085270141952
3709.3682,0.44942076713867046,643.3595633656462
3710.2234,0.4450580729648789,923.3089511155925
3711.0771,0.4419290824310385,893.0308358410088
3711.9307,0.4411002416885019,787.7533875334021
3712.7866,0.4428158799681662,727.68292112515
3713.6409,0.4463831539110421,703.2601888483837
3714.4973,0.4505117928333183,825.7590209595019
3715.3518,0.4537876774154729,712.8651025789908
3716.2085,0.4552911353150129,777.5281640125166
3717.0635,0.4548789636782471,824.0841170518077
3717.9185,0.4531124632487371,1507.1507529593118
3718.776,0.4507700758881309,780.2057477396233
3719.6313,0.4484910668363629,753.5742167635048
3720.489,0.44674496849283535,720.5468281969538
3721.345,0.4460640208064029,817.3871814711157
3722.2031,0.44688336356485314,680.902101889955
3723.0593,0.449034423688034,806.3890254410836
3723.9158,0.4514671934925823,767.6550582555628
3724.7747,0.45273431259427854,784.0974049746842
3725.6316,0.4519728375758215,717.18603096398
3726.4905,0.44954664635507596,863.8807405075936
3727.348,0.4467731766907533,902.9020601075763
3728.2073,0.44501861497058437,692.1926570763318
3729.065,0.44496601446735,836.3004440556415
3729.9229,0.4463523047697604,983.2215409781744
3730.783,0.4482150860205386,847.6846459981546
3731.6414,0.4493170740021461,822.3181156567109
3732.5017,0.4487116655614556,868.9315087288361
3733.3604,0.44623533207150173,856.1459259173545
3734.2214,0.4427048168917322,852.2811252050725
3735.0803,0.43962872325463714,700.1370039987343
3735.9417,0.4383499691514921,789.0555766027863
3736.8013,0.43931854263404796,811.0848981426824
3737.661,0.4418380638756471,955.2025561489178
3738.5227,0.44456310460165177,818.7370174351412
3739.3828,0.4462461775703428,865.8135893204499
3740.245,0.44634409709413303,956.3231664493002
3741.1055,0.4451036601723939,712.7723167145405
3741.9683,0.4433174602784082,803.5620625546725
3742.829,0.441933059776672,885.565465361481
3743.69,0.4416097146580546,860.3268456490093
3744.5532,0.44249049647050426,853.7047031416074
3745.4148,0.44425356956454504,985.0845115067957
3746.2786,0.44646671393946064,827.0606897080186
3747.1404,0.44889035767881413,720.1848848085803
3748.0044,0.4515830379872044,853.0025067665877
3748.8667,0.4546479592950394,824.9377355561912
3749.729,0.45800953065937894,1022.5097249931357
3750.5938,0.46131133156902004,774.1203337919624
3751.4565,0.4640475492835023,805.5832299973733
3752.3215,0.465916950047272,821.520795193038
3753.1848,0.46696640861649374,850.5378755403275
3754.0503,0.4675145326992524,830.0861263102887
3754.9138,0.46776803498984065,863.6276571744173
3755.7776,0.467557986071417,762.5889002321491
3756.6438,0.4664389680994468,962.1076943990373
3757.508,0.46411626020491803,824.8287133265354
3758.3745,0.4607512186750005,758.0049916599163
3759.239,0.45699742344322253,949.2323867934565
3760.106,0.45369873687233014,887.5392852130743
3760.971,0.45166540672551736,965.8876370412285
3761.8362,0.45130271538387223,833.5238006563969
3762.7036,0.4523492653361805,878.0696934134869
3763.5693,0.4538297374989142,881.8407813746695
3764.437,0.45456554481265155,1019.9873398309295
3765.3032,0.4539036043589895,893.4648541619732
3766.1714,0.45207384538055356,859.0617403359372
3767.0378,0.4498517504434811,838.1287956200185
3767.9043,0.447886146158313,891.279437192098
3768.7732,0.4463664589328761,871.578705750969
3769.6401,0.4451733038050233,911.8709514686348
3770.5095,0.4441684841290818,848.3924934449368
3771.377,0.44338303962056946,882.4501800711082
3772.2466,0.4429410783671249,817.8266227772482
3773.1145,0.44292781959002697,1049.909272246137
3773.9824,0.44329273545079023,1098.6867992519333
3774.8528,0.44389153397263265,900.2385233278188
3775.721,0.4445636039825025,922.0735797560864
3776.5918,0.44515906841149955,900.7546277781082
3777.4604,0.44549153858943114,780.4772469405224
3778.3315,0.4454183047737164,883.5579491119613
3779.201,0.445002065815811,927.2683590596497
3780.0703,0.44452978091360906,1049.3429828312142
3780.942,0.4442502440210258,1028.5126984630274
3781.8118,0.44409770602649756,972.6543511445864
3782.6838,0.44374458971450736,866.4726352248433
3783.554,0.44297982383924417,1087.131906043424
3784.4265,0.44200011454561483,636.5258668335729
3785.297,0.4413424208107494,1074.3149784525292
3786.168,0.44148355433582465,1101.3082393899183
3787.041,0.4425165647579796,1399.4440697549649
3787.912,0.44412880840806146,880.5802091789327
3788.7856,0.4459154203383384,887.119356166467
3789.6572,0.44765616345288284,1145.2445582695427
3790.531,0.44940457731351846,1011.3561492215948
3791.403,0.45124235926870654,944.9644041284166
3792.2754,0.45301541620921754,959.9741494114279
3793.15,0.45419714380172316,858.183900533335
3794.0225,0.4540870691610307,899.5210278616162
3794.8972,0.45227058048361607,1059.8384910800462
3795.7703,0.44897446205614966,1100.6206014738175
3796.6455,0.44499331163942707,1001.0013851807588
3797.519,0.44135485620595294,899.9346730396726
3798.3926,0.43885268790311305,799.0519294241717
3799.2686,0.4378556605972261,997.4384158562506
3800.1426,0.4382301359832239,968.846875828478
3801.0188,0.4393322015627653,1178.652444423521
3801.8933,0.44016258520975116,913.3774675628639
3802.77,0.43974417118935377,973.6924515998854
3803.6448,0.4375783529550425,884.6865670951894
3804.522,0.43392852356524453,1161.4320389757938
3805.3972,0.4298194711061438,804.7057861897371
3806.2727,0.4266029189337373,963.4730866692271
3807.1504,0.42542778280644444,1125.0254887671165
3808.0261,0.426720146171736,1049.6082749234172
3808.9043,0.42999357502302377,861.6225923435926
3809.7805,0.4341078601998789,1168.6545761974926
3810.659,0.437886447499515,1114.8124406645202
3811.5356,0.44054389287785545,872.2152314693232
3812.4126,0.4419263591133757,1094.1529957993089
3813.2917,0.44234490127901865,1031.4266241254436
3814.169,0.44229440336191317,983.4740433714023
3815.0483,0.44221586329855733,973.1506142046876
3815.926,0.44240752328178967,1004.311558212668
3816.806,0.44301587835516903,981.7141754893639
3817.684,0.44397088289680486,922.6936911412452
3818.5623,0.44495019015266385,1210.3178475214338
3819.4429,0.4455092298122226,940.4027407438375
3820.3215,0.4453419969411471,906.217803176656
3821.2024,0.4444461614517681,969.1718932427167
3822.0815,0.44304439166797066,902.7038643560877
3822.963,0.44136973974087057,1024.2041086240824
3823.8423,0.4395549226159339,1205.116172664952
3824.722,0.437616949891769,1148.1958502318464
3825.604,0.43558672055695,1116.9075372846435
3826.4841,0.43364831703182366,975.0311672251412
3827.3665,0.43208277541205636,1162.8285057530386
3828.2468,0.4310649623725833,1141.0042275439
3829.1296,0.4303696891373888,1105.6523243512477
3830.0105,0.4294529814254168,1078.0800541385584
3830.8916,0.4279048467936284,1100.5999527446718
3831.7751,0.42589028757557484,1112.315234877853
3832.6565,0.424052313820537,1101.74187442595
3833.5403,0.4228492516322615,1236.0692067511195
3834.4224,0.42210007421909884,1275.4069830626313
3835.3064,0.4211225064298198,1126.6677253161706
3836.1887,0.41936855423673775,1202.2838394786343
3837.0713,0.4168695667085603,1159.4404087482728
3837.956,0.41420594368488484,1153.1558461853772
3838.839,0.41216297453691114,1247.0317265552926
3839.7244,0.41132163529927407,1080.712912069276
3840.6077,0.411919116253713,1170.113691695626
3841.4932,0.4138709262095501,1150.5871471338296
3842.377,0.41687111807230404,1055.9181715862223
3843.261,0.42049956440362274,1157.1106013224007
3844.1472,0.4242982568562552,1119.480155647317
3845.0315,0.42787418322908316,1173.7237458940092
3845.9182,0.43106933412246645,1111.8873915958757
3846.803,0.43384403709736813,1119.4294402090884
3847.69,0.43617859196340814,1106.5331150813993
3848.5752,0.4379647658257542,1174.3388096489234
3849.4604,0.43920577238136743,1110.3308797002305
3850.3481,0.440197730627404,1115.9744323603352
3851.234,0.44147165944764116,1139.8899725493486
3852.122,0.44346900183651805,1054.2678907232341
3853.0083,0.4461821775066074,1107.4963787659478
3853.8967,0.4491747396083336,1016.2064484559216
3854.7832,0.45177268489813144,1118.7029161360483
3855.6702,0.4533641714388809,1156.6037295161407
3856.559,0.4535536520001394,1012.990843703863
3857.4463,0.4523590222037726,1037.7510985023841
3858.336,0.45032296885170087,976.7634670725004
3859.2234,0.44838968711143073,1025.3716176463436
3860.1135,0.4474486218512719,1025.3036646776
3861.0015,0.447903548229066,1060.389940757741
3861.8896,0.44945358736863955,954.9998092687028
3862.7803,0.4513004439838937,1037.2605071800417
3863.6687,0.45257463684810917,1017.0605714132327
3864.5598,0.4528010967011123,1068.4052629174325
3865.4487,0.45202949330499453,1007.99938299604
3866.34,0.45062243562463794,1057.5866856376683
3867.2297,0.4488466086532893,1119.6979791076956
3868.1213,0.44657056318772737,1071.403937531822
3869.0112,0.4434219835386377,845.9336197795923
3869.9014,0.4392201582070981,1096.1865505443657
3870.7937,0.43437642005665267,1083.0687052662665
3871.684,0.42986785563836855,990.3403171326161
3872.577,0.42663384597551995,1128.5122395781393
3873.4678,0.42509251348617005,1145.345125758024
3874.361,0.424929609291668,1107.694379341189
3875.2524,0.42544299500869787,1158.8150312715625
3876.1438,0.4259627050893741,1293.59973741454
3877.0376,0.42606257281314147,1069.5387451809245
3877.9297,0.425523992313865,1225.5308997475297
3878.8237,0.4242724559534521,949.3816157783431
3879.716,0.422407284219373,1349.4561537930729
3880.6108,0.4201668235052059,1146.8770381544286
3881.5037,0.4177917889845039,1517.0299360642
3882.3965,0.41528160424080207,1493.8234770641714
3883.2917,0.41241672877159297,1171.8244579348998
3884.185,0.40907965122345846,1222.2946031390463
3885.0808,0.4055104807972401,1369.76808142523
3885.9746,0.4023209930390672,1205.9608389229002
3886.8706,0.39998789298271314,1358.4532493610488
3887.765,0.39847982070713434,1315.4602286572137
3888.6592,0.39727277454307136,1593.829657540469
3889.556,0.39589599627869765,1359.3850854904426
3890.4507,0.39442856746445215,1445.4204589751532
3891.348,0.39345880133995975,1449.065398911555
3892.243,0.393660535000724,1570.6144169498484
3893.1406,0.39537862849421584,1643.9350798985809
3894.0361,0.3985552436961867,1317.9421276228336
3894.932,0.40288348664997253,1245.9621137883464
3895.83,0.4078609193808573,1518.963377319008
3896.7263,0.41273865873757687,1410.764175107323
3897.625,0.416776907533718,1320.2289961290674
3898.5215,0.4195366165612759,1412.1305596147802
3899.4207,0.4212177648208504,1357.0956059778039
3900.3176,0.42244428569231507,1238.142472394048
3901.2148,0.42387257378364684,1090.6340899101067
3902.1145,0.4258869155210616,1401.6493985802952
3903.0122,0.4286070854271444,1045.3977193316423
3903.912,0.4320443989296526,1099.7818489940164
3904.8103,0.436032673183607,1396.4747609500253
3905.7107,0.4402069726309521,1008.4278364556213
3906.6094,0.4440231296400423,1221.027842010583
3907.508,0.4470769094689053,1125.252108066834
3908.409,0.4492823309477148,1171.3772968262413
3909.308,0.4508736311962942,1202.8414666401395
3910.2097,0.4522990048741111,1177.4948157622948
3911.1091,0.4539786387977471,1130.470644324216
3912.011,0.4560976549714589,1274.022253642499
3912.9111,0.45841469031502685,1097.6070511305957
3913.8113,0.46041091817662744,1029.3056746438915
3914.7136,0.461672746378344,1421.7845654276705
3915.6143,0.46225283608117684,1255.6652566664334
3916.517,0.46266082685712034,1271.3403926234005
3917.4182,0.463403667816947,1101.7954545911366
3918.3215,0.4645325577367374,1182.2587562944443
3919.223,0.4655933998639701,1150.1538526466502
3920.1245,0.4660738954065791,1047.7383224135062
3921.0286,0.4658667756147171,1113.6984867343076
3921.9307,0.4653596175038873,1188.5269831961875
3922.835,0.4651008804567411,1249.27763913283
3923.7373,0.46541704171724557,1030.2588651223978
3924.642,0.46628080759095675,1038.3198388816515
3925.5452,0.46741984800276914,1102.1416581979422
3926.448,0.46850331541813545,1004.0117411166332
3927.3535,0.469267952572927,1069.8630012220694
3928.257,0.4695730436414268,1107.0764319173622
3929.1628,0.4693720575641505,1177.0141950313275
3930.0667,0.46856879589663014,1029.2588603152808
3930.9731,0.46693495906490406,1086.0199245724036
