wavl,flux,ivar
3566.9744,0.38567927164927346,2613.1308966629563
3567.795,0.3845299377194348,2934.6563673632563
3568.6177,0.38220261780094505,2216.424805227437
3569.4385,0.37924026309338527,3578.586950811209
3570.2617,0.37659513307650566,3312.440095856896
3571.083,0.37498606288404535,4810.647191077876
3571.9065,0.3743415549112081,4471.2266616578745
3572.7283,0.3740150769398627,2581.344248925497
3573.55,0.3734588960799881,3454.3291526781722
3574.374,0.3727502863864064,7060.640649134089
3575.1963,0.37248603278159403,2733.6737618012066
3576.0208,0.37320743017928154,6451.398023301897
3576.8435,0.37493590778400504,3731.1322652545778
3577.6682,0.3771894033143319,2840.750117502573
3578.4915,0.3793226119437507,3010.735583428253
3579.3145,0.38092163436286564,2711.2756857432455
3580.14,0.3819075972287848,2545.550985977711
3580.9636,0.3824146631722508,3163.515574480976
3581.7893,0.3826177938226239,2634.4493252867205
3582.6133,0.3826085989904283,2690.2912685129677
3583.4395,0.3824276688603201,2411.1814433830423
3584.264,0.38218036619405404,1930.1632204914476
3585.0884,0.3821103826930999,2884.24337900987
3585.915,0.38252501242396686,4703.938527534969
3586.74,0.3835453130460945,2461.1510576536934
3587.5671,0.38484747792978136,3011.772131184929
3588.3923,0.3856383253044168,2218.2367315692472
3589.22,0.38510814498216916,2027.707376309807
3590.0457,0.3830743035402436,3197.9760917834915
3590.8716,0.3802636910052149,4112.9400170451145
3591.6995,0.3778607951659867,2894.0420492476405
3592.526,0.37665757594980714,2374.958428532584
3593.3542,0.37648783813012576,4819.796486871191
3594.181,0.37651023468124306,2380.435379018136
3595.0098,0.37597061784060065,2850.3779392060965
3595.8367,0.37479474284305436,2714.9990359764424
3596.6638,0.373553597328057,3104.8681147273032
3597.4934,0.3729701168623476,4683.481709719035
3598.3208,0.373372042661769,4461.356318327638
3599.1506,0.3744165877414125,2262.5001393143275
3599.9788,0.37523117014629565,2274.2313091909114
3600.8088,0.3749075525887063,3015.4664491498474
3601.6372,0.37304264392135433,2878.4761829813483
3602.4678,0.3699934056207323,3386.069084342257
3603.2964,0.36673348296952923,2603.938565055072
3604.1252,0.36432254972047634,2515.475830346222
3604.9565,0.3634362375994647,4052.479143083949
3605.786,0.3640729579188235,3645.6744444237706
3606.6172,0.3656158472437639,4091.6110092698173
3607.447,0.367283328241581,2349.24088490579
3608.2788,0.36869431345939796,2598.3699567880712
3609.109,0.3700080509413193,4256.921195719994
3609.9392,0.3715779029992302,2288.728015652994
3610.7717,0.37345052212150137,3674.968741319973
3611.6023,0.375192803020812,3935.888843636212
3612.435,0.3761366800715414,3810.445153089531
3613.266,0.3757155094935001,2812.287919275334
3614.0994,0.3738251970689043,2930.626451058293
3614.9307,0.3710080654148116,3465.3375896846646
3615.7625,0.3682232491796526,2937.5765516822676
3616.5962,0.36632398010084083,2512.5916647704653
3617.4282,0.3655901069605256,3239.177218202266
3618.2625,0.3656833444187057,4210.050195720892
3619.0947,0.36603916509484885,2613.2050512792966
3619.9292,0.366218738095489,3264.8627599877395
3620.762,0.3659360489841055,3183.9183531284593
3621.595,0.3648852994620035,2566.022023126581
3622.4302,0.36272617314774386,2906.2548593382257
3623.2634,0.35942029152226795,2531.944473209444
3624.0989,0.35548668731786887,4868.606674856013
3624.9326,0.3519187133064105,5594.06364388341
3625.7686,0.34958699125202286,2450.33007275923
3626.6028,0.3488800429377054,3328.8022446483224
3627.437,0.3497080462815207,3069.9304492265396
3628.2734,0.3518425971426978,4404.376490366829
3629.1082,0.3550160021850061,3262.921305497449
3629.945,0.3588076195269425,3818.2428049223677
3630.78,0.36249868341506736,2052.6668664928593
3631.6174,0.36542983088310943,2742.6543993027476
3632.453,0.36739329857987757,3539.9430582376376
3633.2883,0.3687942690340472,2933.012291354691
3634.1262,0.37021062719455305,2273.8351563712285
3634.9622,0.3718963009954308,3034.726671208004
3635.8005,0.3737126946098251,2641.655744720467
3636.637,0.37535044695762904,3491.5993887868067
3637.4756,0.3765913345745604,3049.0116460278978
3638.3123,0.3772942717354104,2852.111792652462
3639.1492,0.3773574849796162,2499.9199223653395
3639.9885,0.37671369372632424,3725.4362492175287
3640.826,0.3754137044279966,3244.6466209965647
3641.6653,0.3736579271145505,3484.161547578483
3642.5032,0.3717901467553724,3256.583630450957
3643.343,0.3701576886936399,3092.2453624618042
3644.1812,0.36897396441523717,3723.1182382097363
3645.0195,0.36819916807071273,2850.961589803382
3645.86,0.36763653296344795,2708.9448422607734
3646.699,0.3671397664952083,3471.378103383791
3647.5398,0.3667547042686479,2978.355007788781
3648.379,0.3666792008814539,4683.988173855789
3649.2202,0.367045340799423,3568.721985800675
3650.0596,0.3677326888162552,2197.5630451488028
3650.8994,0.3683904900695535,3095.698957776915
3651.7412,0.3686323249408015,5058.982813610807
3652.5813,0.3682189368876427,3678.6729099369195
3653.4236,0.3670882445770349,4562.235600861075
3654.2642,0.3653113995953122,2246.230523450209
3655.1067,0.36308555861561365,5230.664493354116
3655.9475,0.36084823983244674,3510.143529500434
3656.7886,0.35923519713609686,4622.379481765324
3657.6318,0.35883297586767204,3784.448923820739
3658.4734,0.3597361401166808,3177.1963382155877
3659.317,0.361331049769594,3273.113352391432
3660.1587,0.36262977369422,2884.283714853912
3661.003,0.3629958178268979,4678.552579406758
3661.845,0.3625865337022801,3469.836573983278
3662.6875,0.3621890744872564,4037.464898186605
3663.532,0.3626248401708411,4195.351217936184
3664.3748,0.36422121230481924,4938.585349072667
3665.2197,0.3666665575001668,2853.9363478823307
3666.063,0.3691866962323454,2589.6450822541565
3666.9084,0.3709683851599255,2170.9473682183248
3667.752,0.37146078261487836,2620.840364903471
3668.5977,0.3705429018465219,3298.1107934052548
3669.4417,0.3684638425654023,2852.3502035032407
3670.286,0.365697681479883,2822.878363947832
3671.132,0.36276348853873136,3708.770381969819
3671.9768,0.3600423999783057,3465.0485130943293
3672.8235,0.35762127865609855,3305.289861570221
3673.6685,0.3554541837361274,2824.7511193214
3674.5156,0.3536086248155765,3439.0184564930432
3675.3608,0.3524753329083504,4153.798790439567
3676.2063,0.35256794236684075,5563.936854125297
3677.0542,0.3541492118772598,2598.740438505768
3677.9,0.3569271865854645,3291.426076122684
3678.748,0.36021245037479843,2771.112014939356
3679.5945,0.3632986487767682,4649.923958230669
3680.4429,0.36587840623740797,3813.343558774816
3681.2896,0.3679846882982932,4147.348308949969
3682.1365,0.3697346529640336,3849.241842391217
3682.9856,0.37105358194125654,3264.879047596246
3683.8328,0.3716960249279981,2726.106487121146
3684.6824,0.37149903040400645,2454.3251348503504
3685.53,0.37052203752831664,3810.9761937678045
3686.38,0.368919862560594,3569.887911156572
3687.2278,0.3667364434854355,3509.110163923832
3688.0762,0.36392095089226895,3065.0612907338755
3688.9265,0.36068597498376326,2884.8325063138154
3689.7751,0.35775730196599825,3190.476239207644
3690.626,0.35604481238304747,4007.116888473883
3691.475,0.35606352533462204,5315.123365742434
3692.3264,0.3575219191757779,3338.141294930465
3693.1758,0.35953126462480756,2175.5814128199513
3694.0254,0.36121494223770356,3234.2215003683536
3694.8772,0.36217305035533864,4037.266614236704
3695.7273,0.3625552230654969,5267.855668071298
3696.5793,0.36283714891449886,2528.2190451226083
3697.43,0.3634758664593108,3521.826980105964
3698.2825,0.3646384213700996,2922.3932240123195
3699.1333,0.3660874738195185,2628.342542620016
3699.9841,0.36736631422579097,3614.862296991266
3700.8374,0.36811516712618947,3297.0051757683696
3701.6887,0.3682533629882459,2485.0231702452734
3702.5425,0.36789663889730045,2844.7276810601406
3703.3943,0.3671454904290967,2919.1684781687836
3704.2483,0.3660129749142976,2869.4063956710156
3705.1003,0.36455207115915744,3483.542647982787
3705.9526,0.3629502238893103,2986.7169184191166
3706.8074,0.361500151215688,3515.3210657189484
3707.66,0.36046444569138014,3830.9745128186546
3708.515,0.3599175412193071,2924.5444096693655
3709.3682,0.3597270960873807,3602.896290561466
3710.2234,0.3596252121884076,4191.08329403128
3711.0771,0.3594222849566948,3022.903310085593
3711.9307,0.3592139602022223,4183.293397837095
3712.7866,0.35936360487830626,3395.7704997462306
3713.6409,0.3601826817794782,3458.87687891307
3714.4973,0.3616021130557886,3587.848285500549
3715.3518,0.3631804021186928,2387.470879221866
3716.2085,0.36448919264656765,2571.723977365025
3717.0635,0.36539642018850127,2694.3816487866497
3717.9185,0.36606219868747947,3553.344509002632
3718.776,0.3666571206650703,3251.9045007087434
3719.6313,0.36711625702768136,3127.6933666571567
3720.489,0.36714377044270324,2830.6806651966313
3721.345,0.36646356361726923,2916.859679207105
3722.2031,0.365117102073628,3768.5463715212572
3723.0593,0.3635182278866548,3657.6246063840044
3723.9158,0.3621607654018576,3187.2032255206204
3724.7747,0.3612946209157199,2699.9265575352388
3725.6316,0.3608072973369002,2566.623709130138
3726.4905,0.36036500174607516,3445.522614068171
3727.348,0.3597215266567232,2894.0781343317717
3728.2073,0.3589307520427304,3121.1982514550305
3729.065,0.3583457238714509,3604.7585544587155
3729.9229,0.35837199474106146,3814.470570892602
3730.783,0.3591946015904523,3213.037686897912
3731.6414,0.36063785760725103,3096.7045993599577
3732.5017,0.36227637481764147,3464.498743923154
3733.3604,0.3636342339373032,2799.3813968822947
3734.2214,0.3643789216562657,3295.033368163927
3735.0803,0.3643358044749571,3515.187835186393
3735.9417,0.3634574990032676,3316.0719460056603
3736.8013,0.3618059685960952,3102.9505216878083
3737.661,0.3595846532862132,3370.2338039254196
3738.5227,0.3571685198687463,2955.7123507647625
3739.3828,0.35505239572986175,3419.59820919893
3740.245,0.35362391858680453,3840.4801111119555
3741.1055,0.35303332519497344,2980.9999584949414
3741.9683,0.35319099628699,3934.3535390895377
3742.829,0.3539391403601761,3243.5517443340664
3743.69,0.3551128539856047,3355.0566864485018
3744.5532,0.35642606585616793,3134.1551917579836
3745.4148,0.357382607194211,1978.793607332087
3746.2786,0.3574860098425646,2852.553124200836
3747.1404,0.3565214487516237,3322.1562310655927
3748.0044,0.3545948862817284,2822.503390692692
3748.8667,0.3519039832007905,4145.305142294648
3749.729,0.3485602662645371,2584.032014487992
3750.5938,0.344788478279735,2964.056496471962
3751.4565,0.34124387765190545,4116.4194954079785
3752.3215,0.33883351959287644,6147.067932779452
3753.1848,0.33824513327610195,3192.4282670627945
3754.0503,0.3394896886796554,2268.214519093162
3754.9138,0.34201486839342665,5025.6721697919265
3755.7776,0.34512824907082573,5131.727678714919
3756.6438,0.3482414590243787,2641.6868069521333
3757.508,0.35083550518286044,2501.155979938056
3758.3745,0.35252835914472386,2885.624766748421
3759.239,0.3531934024433991,3464.1830394950675
3760.106,0.35311857724667267,4514.601511860389
3760.971,0.35287658906981517,4139.759920097984
3761.8362,0.3530015734463885,3223.2512760546338
3762.7036,0.35366471721374027,4138.208113260456
3763.5693,0.3545400777760759,4389.394211689385
3764.437,0.3549733590378558,2958.450260478355
3765.3032,0.35434837670374963,3339.054040833236
3766.1714,0.35245924415504537,3232.2617855329026
3767.0378,0.3496395726629377,3478.2832366986595
3767.9043,0.34653774579782914,4518.656611147108
3768.7732,0.34378832816046323,4219.930170904175
3769.6401,0.34180571478856336,3329.3089746183205
3770.5095,0.3406886196273816,3999.854402732259
3771.377,0.3403387981297612,3006.0110380923147
3772.2466,0.34057508130398456,3645.6799163127453
3773.1145,0.3412587983692001,4140.994726794268
3773.9824,0.3423070728875182,2530.0172209377583
3774.8528,0.34363950897367834,4033.7334530435933
3775.721,0.34517108309933525,2067.3886815005885
3776.5918,0.3469303799298745,2920.9851731556123
3777.4604,0.3490359810448906,4680.719188680213
3778.3315,0.35159923604969245,3447.0187383649745
3779.201,0.35456830384138127,3524.2472585236646
3780.0703,0.35781364858081127,3556.3848344539747
3780.942,0.3611818990153927,5690.1420698443
3781.8118,0.3643906227882182,3330.1574205553748
3782.6838,0.36696264975517945,3135.1504114144764
3783.554,0.3682507783846171,3608.0148073348
3784.4265,0.36778705830852143,2672.1101272907167
3785.297,0.36557994064783667,3245.3434611434445
3786.168,0.36218520518897873,2929.555617600354
3787.041,0.358445003842109,3272.6587457242636
3787.912,0.3550984881370662,3508.434248114764
3788.7856,0.35241478415062155,3560.6165333231584
3789.6572,0.3502818277170875,3312.53418845567
3790.531,0.34843601849664324,3161.089109525862
3791.403,0.3467720865506909,3612.9490102503096
3792.2754,0.3453729180058542,3631.952063076491
3793.15,0.3444119070165965,2856.2765472081587
3794.0225,0.34397698126814463,3192.3221572664
3794.8972,0.34389577603440236,3030.8369208723825
3795.7703,0.3436994599903715,4911.27992907159
3796.6455,0.34277108804580947,3399.672924241869
3797.519,0.3406682995633851,3660.0551739595444
3798.3926,0.3373929134779979,3905.672462159828
3799.2686,0.333437321131204,3317.465155950808
3800.1426,0.32963072922420955,6381.340374908782
3801.0188,0.32677661975884775,3979.034099325483
3801.8933,0.3255113225195209,4805.3491945026235
3802.77,0.3261825096743853,5913.189861130197
3803.6448,0.32881836836820516,5005.594901360312
3804.522,0.33306834677493125,4054.1593593450652
3805.3972,0.3381601027806223,3830.9891551082396
3806.2727,0.3431870042112487,3094.705663208442
3807.1504,0.3474534632149838,3008.286554057103
3808.0261,0.3507289726142575,4353.854071184943
3808.9043,0.3532911091784769,2520.421000028433
3809.7805,0.355557674702032,3073.5602112821016
3810.659,0.3578064299709146,3273.7132847250173
3811.5356,0.36000705351622525,2981.9039626748736
3812.4126,0.36198502424939494,5488.472466725115
3813.2917,0.3635757917111365,2149.337129285965
3814.169,0.3646321656669844,3003.113911371985
3815.0483,0.3649689699185615,3427.696382101972
3815.926,0.36440173259419184,2755.4830475015524
3816.806,0.36298247885845825,3754.4869547403537
3817.684,0.36115151824325614,2385.7245070820563
3818.5623,0.3595424975578526,3897.218889343121
3819.4429,0.3586115575233222,2965.7869702280814
3820.3215,0.358392548113114,3505.558661107924
3821.2024,0.35851963111890656,3605.798109930607
3822.0815,0.3584482671385101,3381.6519368921886
3822.963,0.357679952251072,3975.888954853031
3823.8423,0.3559583832813982,3501.845745778422
3824.722,0.3533621879599394,3525.900906334371
3825.604,0.3502235710296462,3621.401749422757
3826.4841,0.34691709328855946,3730.4995541674457
3827.3665,0.34359836814392436,4064.1123054253535
3828.2468,0.3402748606220078,3205.8636264221686
3829.1296,0.33688393569007563,4301.936532564172
3830.0105,0.33340583573778704,3514.2623525620656
3830.8916,0.3297209285837706,3185.514594737542
3831.7751,0.3256203307666063,4850.718569203001
3832.6565,0.32103161502527067,3775.7998021470735
3833.5403,0.31618644535625223,3568.6988800598174
3834.4224,0.31176329360880867,4488.248633418502
3835.3064,0.3085811888865468,3991.473108946785
3836.1887,0.30728730112770036,6257.877539229321
3837.0713,0.3079819487529877,4363.898815367388
3837.956,0.31021386493166503,3098.5042187777626
3838.839,0.31325234518554584,7001.897499452576
3839.7244,0.316551460727639,7717.89741654175
3840.6077,0.3199249684345964,5192.593872074251
3841.4932,0.32351949582600203,4188.474580904263
3842.377,0.3275082387974974,5567.83423652908
3843.261,0.3319577711906002,3511.9228898774863
3844.1472,0.33677520646335934,4364.1577575132615
3845.0315,0.3417424451936603,4069.573680166638
3845.9182,0.3466536273220502,3616.886174042614
3846.803,0.3512277782985143,2683.864163874642
3847.69,0.3552510545065843,3109.6878271443047
3848.5752,0.35863437570745976,3261.672375906342
3849.4604,0.36158734815820637,2834.7720350405357
3850.3481,0.36450117033465046,2869.969516618611
3851.234,0.3676654090472108,3756.0364492354297
3852.122,0.37110568148679884,3603.289854807227
3853.0083,0.3745210824209077,2274.8792133257625
3853.8967,0.3775178626785644,2290.0358290401637
3854.7832,0.37972277605554533,2686.2047137984723
3855.6702,0.3809264100768706,3229.4904264669303
3856.559,0.38110662496929004,2692.5365096455585
3857.4463,0.3805017026854087,3371.3709232297992
3858.336,0.37960441068465023,3404.8561003512646
3859.2234,0.378998617748055,2246.1199916843107
3860.1135,0.3790631598905537,3237.3751991438867
3861.0015,0.3797892881178943,2687.1986896372086
3861.8896,0.3808342245604116,3175.071377530286
3862.7803,0.38178462656388784,2846.1102367085577
3863.6687,0.3824172357518905,2855.036649316366
3864.5598,0.38279487486032654,4038.195183948228
3865.4487,0.3830746851355467,3301.018506957056
3866.34,0.38323010645225397,3484.6916267879405
3867.2297,0.3829072616527462,5407.710000337367
3868.1213,0.38157655334482093,2832.118955860382
3869.0112,0.37887266711096035,3356.016839083717
3869.9014,0.37483877717207664,2918.3121387203037
3870.7937,0.369935592761607,3626.3580485425023
3871.684,0.3648654352854769,5577.773418586311
3872.577,0.3601957567188774,4025.7289835848496
3873.4678,0.35625859551853034,3594.582057604493
3874.361,0.35304008991987007,3057.9334196097443
3875.2524,0.3503530526803502,3092.062488745711
3876.1438,0.3478864868559627,3851.4627459470457
3877.0376,0.3452809944977409,3137.506935656284
3877.9297,0.3421738150334266,4030.413433325361
3878.8237,0.3382613268669744,3020.845100217986
3879.716,0.33354922841509266,4341.9870870902
3880.6108,0.328368176956572,3606.4415524257834
3881.5037,0.3232200029569884,3786.5108473342098
3882.3965,0.3182775297117433,4916.926108243358
3883.2917,0.3132566326622198,3666.596815655637
3884.185,0.30774544260303144,5311.642417320621
3885.0808,0.3015327378439054,4132.681543471787
3885.9746,0.2948282555304146,4269.926509151291
3886.8706,0.2879118425201403,5595.178600452602
3887.765,0.2810294152217394,5190.451107693312
3888.6592,0.2743563783027345,5459.938316300243
3889.556,0.268324193678602,5281.628286749739
3890.4507,0.2638273378605829,5925.027109411323
3891.348,0.26188458622392063,6539.925710008658
3892.243,0.263179124939547,6736.246456462952
3893.1406,0.2676351321604513,8946.338439950508
3894.0361,0.27445662196365983,7084.6221992577475
3894.932,0.282605145441638,6316.209252661527
3895.83,0.2911599539114393,5904.233787071062
3896.7263,0.2994119924215288,4707.752675449698
3897.625,0.3070574608531984,6493.801564299354
3898.5215,0.31403124713991537,4278.794578074875
3899.4207,0.32052907296582,4819.460775893585
3900.3176,0.3266178599280519,3659.1474266250666
3901.2148,0.33225871495374937,4054.162773394003
3902.1145,0.33742047708131445,3849.0649901482784
3903.0122,0.34228459555010854,4007.8937934073415
3903.912,0.347307146670753,3894.2424492078853
3904.8103,0.3528441037617912,4416.64827054527
3905.7107,0.3590127698792432,2661.7585985613678
3906.6094,0.3655831126078747,2979.4890294573634
3907.508,0.3721537226958898,3054.9700044795436
3908.409,0.378192145235239,2718.727879298055
3909.308,0.3831333438282415,2628.4442212382696
3910.2097,0.3867149225063803,3388.769914330105
3911.1091,0.3890592540987657,3562.965254871231
3912.011,0.3906817443717171,2528.429796963244
3912.9111,0.39223244219986597,1904.384495784342
3913.8113,0.39433404983902165,3085.0462234311335
3914.7136,0.3973773156401609,3131.496966013811
3915.6143,0.40126373330325615,2547.588836295237
3916.517,0.4053951676556164,2506.275670987778
3917.4182,0.4089361222943586,2271.997647643387
3918.3215,0.41140366447730503,2847.590639321952
3919.223,0.41287178059880736,2638.2339674856207
3920.1245,0.4138105271193615,2039.8097308608915
3921.0286,0.4146653240711752,3572.0514914839773
3921.9307,0.4156259178680973,2945.811454860247
3922.835,0.41665819527171244,3057.2644583354877
3923.7373,0.4176016450871038,2408.6387977590007
3924.642,0.4182681799162246,2819.51542274084
3925.5452,0.41846983864970155,2165.3515527438167
3926.448,0.41809819959196187,2106.349991001025
3927.3535,0.4172070946213317,2211.9544343849675
3928.257,0.41604549480316855,2726.806064747882
3929.1628,0.4149014096715856,2554.858022609564
