wavl,flux,ivar
3566.9744,1.6187582668245541,325.4513311172054
3567.795,1.622864259381078,327.35047830850505
3568.6177,1.6249628872655844,325.895974036919
3569.4385,1.623828262049031,300.3711808863561
3570.2617,1.6195398318487322,275.2898207633223
3571.083,1.6131402572875135,303.50962781607467
3571.9065,1.6059298923733143,312.6211837604166
3572.7283,1.5991564384337533,335.0780866502742
3573.55,1.5936616567959367,312.5083484359181
3574.374,1.5897102016762905,382.7280363005876
3575.1963,1.587002480776603,359.9652852858282
3576.0208,1.585156576103853,361.3355305030979
3576.8435,1.5845810650272163,379.4844621475193
3577.6682,1.586599140867389,444.3615557931343
3578.4915,1.592385233734848,331.26623739382427
3579.3145,1.6014658088309062,302.42579125909015
3580.14,1.6113283509044403,328.50636719428
3580.9636,1.6185206187770234,324.6825392044669
3581.7893,1.6205865005222166,288.9093751767165
3582.6133,1.6168954025105118,287.89182612955364
3583.4395,1.6085436532927229,317.717867195377
3584.264,1.5978003328910622,387.9521016797755
3585.0884,1.5872296471191054,448.7554424422008
3585.915,1.5788815371236578,446.10027777871505
3586.74,1.5736421215097975,422.30430910226113
3587.5671,1.5708659821901747,376.80297876686404
3588.3923,1.5689165916896763,362.7508280243328
3589.22,1.5661365869146429,338.65744790368996
3590.0457,1.5620480300538637,353.5988803880764
3590.8716,1.5576931170253292,386.9634765869638
3591.6995,1.554825759504992,442.00659582108545
3592.526,1.55446297058962,288.71795814590354
3593.3542,1.5560145010096857,429.0686739591594
3594.181,1.5578018075191515,376.74138582970033
3595.0098,1.558396868297469,388.82838434096766
3595.8367,1.557582278947887,370.2660729453021
3596.6638,1.5562993002770729,294.42066154703576
3597.4934,1.5557565746688968,376.5168899264797
3598.3208,1.5565047478191127,394.7577150383721
3599.1506,1.5581156623150132,376.16958705859315
3599.9788,1.559562454769878,407.2722569241787
3600.8088,1.559885306551684,383.4924565340718
3601.6372,1.558626562362753,428.79911486359686
3602.4678,1.5560114952437964,403.5867545835861
3603.2964,1.5529356448421796,414.1881396376841
3604.1252,1.5505481242728418,438.5340524716116
3604.9565,1.549535552664571,492.8608413787505
3605.786,1.5494858605855693,283.37856315118086
3606.6172,1.5490212911820118,324.7552136971077
3607.447,1.546817267264589,325.6931256926129
3608.2788,1.542657028314434,307.516316529535
3609.109,1.5377212595151402,329.8081140456321
3609.9392,1.5337499848359102,443.77448278908514
3610.7717,1.5318453151954807,441.1881168660032
3611.6023,1.5317000057947048,366.0522735380265
3612.435,1.531875190573659,334.9663958148923
3613.266,1.5309514409979994,328.97661601250036
3614.0994,1.5284804857473318,450.1619393237943
3614.9307,1.5250362579236494,407.0942511438256
3615.7625,1.521471864416022,436.2416534999569
3616.5962,1.5182749378328277,376.5759349455163
3617.4282,1.515460802258375,380.2181021085306
3618.2625,1.512878694500088,422.21684049332197
3619.0947,1.5106863239599568,468.2256683345582
3619.9292,1.5093838624400284,443.4733326635381
3620.762,1.5095025475086568,412.0695976722183
3621.595,1.5110874329397994,340.4891180573832
3622.4302,1.5134934141460794,501.7515914141926
3623.2634,1.5155650224160822,424.8700694024973
3624.0989,1.51617426232732,331.3347818348954
3624.9326,1.5146715949118796,414.92391822269104
3625.7686,1.5111469957104908,277.13964400055346
3626.6028,1.50645324047101,291.91582267302664
3627.437,1.5018674120823134,351.62614562379514
3628.2734,1.4984794078647992,333.2095920358866
3629.1082,1.4964984518272242,370.6150995761301
3629.945,1.4950221323709534,373.8311477663319
3630.78,1.4928145678806923,424.9206304739184
3631.6174,1.4893990234171308,453.39251080521433
3632.453,1.4856569484961035,426.930236476579
3633.2883,1.4832589993078327,477.0914175824558
3634.1262,1.483594496038664,437.22379453946115
3634.9622,1.486917372042114,375.69632938009335
3635.8005,1.4922528781509166,392.0639499641419
3636.637,1.4977586151049285,382.63943940395467
3637.4756,1.5013733027547322,362.1037497645025
3638.3123,1.5013512288533848,408.1456154792111
3639.1492,1.4970598216599256,438.0663068128727
3639.9885,1.4894147750585303,407.8734424975948
3640.826,1.4807134356568248,468.3335171701469
3641.6653,1.4733683849914432,427.34847267861954
3642.5032,1.4687876097083854,413.5186639911235
3643.343,1.4667710466970338,379.7177865577771
3644.1812,1.4660935434918196,368.8295173795602
3645.0195,1.4654439982070744,479.17126515221383
3645.86,1.4641945359446615,385.04644211610156
3646.699,1.4625579932514552,430.1325792083996
3647.5398,1.4611192091374858,440.9720158785244
3648.379,1.4601680071784047,450.51195968038036
3649.2202,1.459322695798148,421.1933628838198
3650.0596,1.457869752487912,401.53739651716927
3650.8994,1.4554780813367127,513.7330498700966
3651.7412,1.4527625328550924,584.293902612729
3652.5813,1.451271671342295,449.69585188790853
3653.4236,1.4526699867056894,391.43389880333405
3654.2642,1.4574067098931847,402.3590342949573
3655.1067,1.463733106583257,482.69540790217957
3655.9475,1.4681608987099897,372.76991761121116
3656.7886,1.4676879961656328,431.0311628287505
3657.6318,1.4617837846276627,416.71273418438113
3658.4734,1.4526598979333667,510.1885967230792
3659.317,1.4434854294950479,499.6340062484025
3660.1587,1.4366056661559492,523.4688500358545
3661.003,1.4326165054718534,465.3629186782068
3661.845,1.4308606111265239,485.1806972465492
3662.6875,1.430180038915065,538.7523852201542
3663.532,1.429647432277609,463.9082937987647
3664.3748,1.4288371985568906,465.5167440801744
3665.2197,1.427738328966994,431.3882443134095
3666.063,1.4265023137887018,462.40462869212035
3666.9084,1.4251716502148715,458.42472370867387
3667.752,1.4236285911842734,400.40592575245324
3668.5977,1.4217045836262623,481.39269438326096
3669.4417,1.4194007850726988,373.161171013487
3670.286,1.4168634822308541,493.56987298221514
3671.132,1.4141559362982359,593.1119184575454
3671.9768,1.4110413108199902,481.9878097145645
3672.8235,1.4070692126201119,375.280920603766
3673.6685,1.4021725638380271,422.7344171151066
3674.5156,1.3971111227126278,525.3497846959808
3675.3608,1.3934638856440864,443.13640924688957
3676.2063,1.3927203351279407,508.18087074427604
3677.0542,1.3952941489179806,503.540267877249
3677.9,1.399966379823306,488.5992509396213
3678.748,1.4044650755974935,453.6506352833684
3679.5945,1.4066978669154029,579.5606601358321
3680.4429,1.4059789461497985,443.9121041937509
3681.2896,1.4030977611653541,388.15649201082323
3682.1365,1.3993947537708908,481.4722967102531
3682.9856,1.3957681006621547,370.59056921894773
3683.8328,1.392497590766456,477.91944301525297
3684.6824,1.3896176078393576,425.70694844843416
3685.53,1.387322957813048,457.47669997245396
3686.38,1.3857713800068665,521.0824236166793
3687.2278,1.3848323106632265,470.0511339603049
3688.0762,1.384102335228884,495.16626214712386
3688.9265,1.3833064641511719,462.4452441251075
3689.7751,1.3825419265565249,451.3032905892231
3690.626,1.3820400349291833,501.4282951984923
3691.475,1.3817654709127796,540.8319751184248
3692.3264,1.3813588798329752,487.8138543979981
3693.1758,1.3805555527792064,547.8335937700384
3694.0254,1.379523676718485,416.49438433293045
3694.8772,1.3786659075892647,479.1217345355072
3695.7273,1.3780843293939276,579.5025286719008
3696.5793,1.3773517419326797,530.8139236280769
3697.43,1.3759384296006565,444.7727135712113
3698.2825,1.3737847486216332,553.2324295937769
3699.1333,1.3714484808334606,440.72638405082876
3699.9841,1.3696343342452266,484.38135180572107
3700.8374,1.3686571650530543,514.8473911585498
3701.6887,1.3682349097971467,463.9088499238708
3702.5425,1.3676968483295486,471.0862847813486
3703.3943,1.3664614817090872,487.68541995859687
3704.2483,1.3644090274348817,497.45092957194413
3705.1003,1.3619696673730273,474.9896525095083
3705.9526,1.3597799922460372,533.6711730706734
3706.8074,1.358258658385115,432.6531093628628
3707.66,1.3574108187212464,485.17015703577863
3708.515,1.356960245487632,415.8112363395607
3709.3682,1.3566188723134591,602.3560370690981
3710.2234,1.3561017787522371,523.1896563947367
3711.0771,1.3550343303157384,550.6646111321517
3711.9307,1.3530701844916213,540.5544464150423
3712.7866,1.3502606744777639,461.0685272938132
3713.6409,1.3472577323639905,500.1225738193134
3714.4973,1.3448946652516252,618.106214017698
3715.3518,1.3436342899293974,615.0708516637511
3716.2085,1.3433013981060744,423.41566706283504
3717.0635,1.343372421382218,568.6801872738598
3717.9185,1.3433471076985868,450.40061714931284
3718.776,1.3429614212810863,427.9851824930849
3719.6313,1.3422264878747958,643.0320252555204
3720.489,1.3413405639905729,426.8467955419339
3721.345,1.340529277597949,622.5567243259756
3722.2031,1.3398565437147762,481.5765341295977
3723.0593,1.3392007989851116,480.44449425807454
3723.9158,1.3384066804405022,489.9208654451822
3724.7747,1.337524630640698,466.07701861634746
3725.6316,1.33684582316399,551.5696035422147
3726.4905,1.336578225839032,467.63008841977205
3727.348,1.3364931912810867,497.50656483131803
3728.2073,1.335927960404329,521.4942530376867
3729.065,1.3342153715285519,501.37781147006535
3729.9229,1.3311231061424107,571.7684903437807
3730.783,1.3270017100373914,500.60086543712447
3731.6414,1.3226904893716964,508.8182973158416
3732.5017,1.3191207694195861,687.1958438534677
3733.3604,1.3169188151434885,594.5361442124241
3734.2214,1.315995865846517,492.20063329084445
3735.0803,1.3156783667240532,528.7339159838383
3735.9417,1.3152485071788245,625.9599418449619
3736.8013,1.314563562379033,543.6338901815094
3737.661,1.314168320833601,562.5752523236804
3738.5227,1.314802590992661,530.624364244122
3739.3828,1.316660775683679,579.7145919675503
3740.245,1.3190653954084475,529.9431490789017
3741.1055,1.3208441210968835,375.9844987848548
3741.9683,1.321202778662153,687.6860553345673
3742.829,1.3202149428752115,565.7822130754284
3743.69,1.3185736501265757,691.3697559456599
3744.5532,1.3168623798853218,572.7785161146454
3745.4148,1.3151443321833376,452.06530846954183
3746.2786,1.3131301722960005,546.5392152846694
3747.1404,1.310689625480264,707.0625112270036
3748.0044,1.3080119448809988,611.2744247211189
3748.8667,1.305454550871657,626.5202007304571
3749.729,1.3032386652528427,573.0725948629687
3750.5938,1.3014221690780512,589.5895575555727
3751.4565,1.300046447230701,666.1097812588631
3752.3215,1.2992138415685328,588.2913103241947
3753.1848,1.2990688340057612,638.2367431553267
3754.0503,1.2996257929432935,588.9956629886744
3754.9138,1.3006582993133242,685.6344851582264
3755.7776,1.301770799919222,461.0015576077649
3756.6438,1.3025817735340675,528.6457939345283
3757.508,1.3028156167098914,691.2183834322343
3758.3745,1.3022447652458138,609.6437229819383
3759.239,1.3006219567370068,607.129224701498
3760.106,1.2977724806409492,540.5842293437968
3760.971,1.2938444545437455,563.875566435174
3761.8362,1.2893893636673985,636.1244142279326
3762.7036,1.2852615118184558,623.9697777560835
3763.5693,1.2822548453755929,487.88740199301515
3764.437,1.2805383121976481,664.8873800126909
3765.3032,1.2795006615758948,620.1708978404071
3766.1714,1.278138096244298,499.74390921925874
3767.0378,1.2759175890190821,537.7620505726561
3767.9043,1.2732895200542131,627.1875364099324
3768.7732,1.2713760437442114,672.9907832308729
3769.6401,1.2710484987363724,563.0136670677151
3770.5095,1.2721292042958592,677.645438983398
3771.377,1.2734370265851926,688.0569712834945
3772.2466,1.2736256358808633,545.1763592103479
3773.1145,1.2721796032758073,459.26685819484413
3773.9824,1.2698082056555184,809.4805777216183
3774.8528,1.267821648286473,612.6071546375788
3775.721,1.2670400975403044,642.9673748694565
3776.5918,1.2671737584957092,574.3975228861744
3777.4604,1.2672735815574947,527.1559851433042
3778.3315,1.2666053329227827,661.1481019091942
3779.201,1.265097619416794,637.1799229622845
3780.0703,1.2631456232850102,534.7287505568607
3780.942,1.2612751905576804,569.3314584347868
3781.8118,1.2600445210834537,587.4269266154602
3782.6838,1.2599612885116165,557.7863228416595
3783.554,1.2612475647406767,562.9963183330406
3784.4265,1.2635253569971554,624.5369502652316
3785.297,1.2657766419872332,677.8731887334964
3786.168,1.2667870255778528,647.112797307962
3787.041,1.2656900450129611,616.7177624625884
3787.912,1.262345627158121,540.7667360447973
3788.7856,1.2572518514117692,616.1242845072576
3789.6572,1.2512546424600308,647.6926970558746
3790.531,1.2450938609765723,597.0671468858532
3791.403,1.2393247822196667,646.7391367736291
3792.2754,1.2341968731903008,690.4595708593375
3793.15,1.2297385875252724,661.538527911239
3794.0225,1.2258479936104743,662.4917971555464
3794.8972,1.2223115143133547,585.0959944778443
3795.7703,1.2190000020702805,703.868502178228
3796.6455,1.2159741309864702,570.7185299036757
3797.519,1.213686417239723,704.6451075262019
3798.3926,1.2128288708886124,573.4658447826662
3799.2686,1.213901977534062,687.3836439751815
3800.1426,1.2166481414471275,658.1439144829995
3801.0188,1.2199916147390573,593.4313920796495
3801.8933,1.222611713936332,456.76805747947395
3802.77,1.2238463231774483,532.6730172833196
3803.6448,1.2240389598493757,672.5837154484346
3804.522,1.2242651497947252,730.0792573380517
3805.3972,1.2257196223484308,518.7169282071353
3806.2727,1.2291820456765892,795.7206927519037
3807.1504,1.2346035422828177,753.3020891424209
3808.0261,1.240878112016326,775.8967679221673
3808.9043,1.246380509085648,588.5067686955725
3809.7805,1.2498567118290866,526.2454459576805
3810.659,1.2512742288339256,713.1330918780442
3811.5356,1.2515486239679219,553.5572675819047
3812.4126,1.2516479972300045,566.7751624750582
3813.2917,1.2518370760826683,588.6437042875724
3814.169,1.251709514964108,594.2995476048006
3815.0483,1.2507966726670228,616.2238443246185
3815.926,1.2491246868572763,679.0966263831681
3816.806,1.247196491498259,687.8349457272569
3817.684,1.2454874451299613,785.4192738225756
3818.5623,1.2438986867330981,648.8046815294356
3819.4429,1.2418114074121092,594.0919228873898
3820.3215,1.238688326140696,725.6841533173124
3821.2024,1.2345475308235978,600.7597951489772
3822.0815,1.2299448832890876,639.012160953935
3822.963,1.2253606642633126,627.1628650943691
3823.8423,1.220827700900753,676.6933942415303
3824.722,1.2158890598364607,660.8808757870806
3825.604,1.2100316414250618,653.0992449635422
3826.4841,1.2031173048550654,674.7350977603148
3827.3665,1.195337480943986,644.5331151048422
3828.2468,1.187096283960178,813.1765070714307
3829.1296,1.178583237896007,713.0283977673441
3830.0105,1.1698727144513212,642.5074967176305
3830.8916,1.1609440519310765,774.6012766447783
3831.7751,1.151883065440346,774.9655297637468
3832.6565,1.1428358923038195,746.6877594472177
3833.5403,1.1335871559867416,751.7005416605483
3834.4224,1.1237816011697461,676.3330688678611
3835.3064,1.1132801160281587,737.8500984143368
3836.1887,1.102927687161112,740.4241613793815
3837.0713,1.0943773700719317,951.1205770664712
3837.956,1.0894121404377735,891.6723541757016
3838.839,1.0891100129467317,852.8851733674854
3839.7244,1.093535326350913,681.1768004235587
3840.6077,1.1020747277193375,991.7538134923512
3841.4932,1.113941889784754,793.2219069432313
3842.377,1.1281914376781716,907.3518383252293
3843.261,1.1438431654011505,682.7269621198045
3844.1472,1.1597891636547928,701.2079615532534
3845.0315,1.1747518614086312,641.354490705667
3845.9182,1.1877142702779384,690.8774174616474
3846.803,1.1978839173064335,619.9305015909722
3847.69,1.2052070751200412,664.2019219300835
3848.5752,1.2102959883945026,644.5277757153789
3849.4604,1.2143367545503683,667.148040156348
3850.3481,1.218528046064412,676.3482047935233
3851.234,1.2236092716630391,625.8345121312612
3852.122,1.2298294178173452,614.6099039781598
3853.0083,1.236978199210776,750.1780241132055
3853.8967,1.24461636582394,642.8369896732856
3854.7832,1.2520003312719616,730.899185499184
3855.6702,1.2583763058861068,592.1325671270923
3856.559,1.2631911058283696,636.0095017532352
3857.4463,1.2662277653174694,649.9655482159989
3858.336,1.267542044024852,593.4713256334079
3859.2234,1.2672420635039316,479.190924371165
3860.1135,1.2655417689611264,599.5117147239615
3861.0015,1.2628936913763393,674.498311704344
3861.8896,1.259924428879296,548.3873863421626
3862.7803,1.2572026714843942,651.1167002508022
3863.6687,1.255029613379814,560.3788780733369
3864.5598,1.2533185044398447,614.3976929561187
3865.4487,1.2517224816726003,650.5497504291609
3866.34,1.249761785109248,451.11276094337126
3867.2297,1.2470299613375766,593.1952928419519
3868.1213,1.2432157137254394,655.9224532833613
3869.0112,1.2381038708488779,701.4409997765763
3869.9014,1.231523041835755,638.3248458885073
3870.7937,1.2234929595776585,793.426732010557
3871.684,1.2144242758295039,707.442489643268
3872.577,1.204907743750368,613.2174544974091
3873.4678,1.1956232881499842,686.5423179562919
3874.361,1.1868776145348814,693.520656728177
3875.2524,1.1785855790731006,894.4329587388545
3876.1438,1.1700779620779582,749.2072972289697
3877.0376,1.160398339540201,804.5050997345602
3877.9297,1.1489098493688847,698.8085831763052
3878.8237,1.1356110298794135,805.2848263574714
3879.716,1.1213214997073484,870.2397724932202
3880.6108,1.1069547802406743,868.1836785672616
3881.5037,1.0931969107367259,771.6147809034675
3882.3965,1.0800250939548226,692.5299973790787
3883.2917,1.0669178798146886,936.9793891495824
3884.185,1.053236841197746,766.3270232236104
3885.0808,1.0383016171212198,981.485116986142
3885.9746,1.021946334900823,926.415523197846
3886.8706,1.0044506451849895,884.2223631831021
3887.765,0.9869590273011756,964.9236883271719
3888.6592,0.9711485585954606,1266.637755136488
3889.556,0.9589899368889526,1200.1393968852615
3890.4507,0.9522559624149932,1359.9794342839662
3891.348,0.9517630300970507,933.8906741367184
3892.243,0.9571964062661654,1112.6650217138215
3893.1406,0.9672543501839447,1121.225644808464
3894.0361,0.9801068136101204,1065.8226254683627
3894.932,0.9942749450095864,873.7019288541082
3895.83,1.0090172350030864,867.6788701267964
3896.7263,1.024109624987554,987.2937280935357
3897.625,1.0395900010802823,986.8285506861204
3898.5215,1.0550000517773452,977.562038636704
3899.4207,1.069670961425752,967.5755155291166
3900.3176,1.0827830766051525,754.867674245268
3901.2148,1.0941444893356693,662.7915528157553
3902.1145,1.1043595983959937,748.5645366650366
3903.0122,1.1146940503319,730.668872876203
3903.912,1.1267074617542436,883.4548569153171
3904.8103,1.1412471550364116,853.9396108112556
3905.7107,1.1580990960005264,820.2643259730378
3906.6094,1.175817321807668,643.872277468107
3907.508,1.19263125368738,641.3604225962947
3908.409,1.2071424300469464,715.5943747214307
3909.308,1.2187461023934858,616.7618664743773
3910.2097,1.2279720948352946,640.8300307918428
3911.1091,1.2360159172765746,672.4167745200854
3912.011,1.2443527224976696,666.0947545041528
3912.9111,1.2538508177520094,605.1808124211858
3913.8113,1.2644745729833884,567.6088790299326
3914.7136,1.2753894032408795,554.9124365133791
3915.6143,1.2854459674430008,604.4662881256753
3916.517,1.2939020272560993,665.4765096519599
3917.4182,1.3005196137117232,589.6742112750802
3918.3215,1.3057180629347622,554.9427302392954
3919.223,1.310309380461551,637.4146898805499
3920.1245,1.3152739678614025,610.7742330753177
3921.0286,1.3212663515947909,628.7778383068226
3921.9307,1.3281804993183017,573.3020058930335
3922.835,1.3352206426071014,563.2869883600193
3923.7373,1.3411624036050391,533.7844394330103
3924.642,1.3450375055479444,604.270799637404
3925.5452,1.3464769645295238,555.8758094673333
3926.448,1.3459216218130234,529.5344542111773
3927.3535,1.3443471650057521,546.6230450700597
3928.257,1.3427965998427562,511.0814618865438
3929.1628,1.3418528502499103,618.6521374208993
3930.0667,1.3414590338922199,520.3606277918423
3930.9731,1.3410649312872494,688.5386716182944
3931.8774,1.3399677447855658,511.69273922251176
3932.782,1.3375950432660588,503.6305160943275
3933.6887,1.3337055703577434,517.757318969829
3934.5938,1.3285373736710406,542.5322950100193
3935.501,1.3226651414857284,598.2437014248475
3936.4062,1.316791956189222,559.6574949222219
