wavl,flux,ivar
3566.9744,2.0019188894505744,11.698954755678185
3567.795,2.0144346641931734,19.59008440804181
3568.6177,2.0171242543248487,11.51563729587957
3569.4385,2.012911868962456,21.55569731085137
3570.2617,2.0072428012090535,15.121103259134832
3571.083,2.005162777648741,11.943750369454218
3571.9065,2.0088971402605904,24.61231811498776
3572.7283,2.017105991423715,19.076022147019682
3573.55,2.0259439437148665,17.005338759081543
3574.374,2.0310183584725094,20.702037358216423
3575.1963,2.0289024978112526,22.297180132517727
3576.0208,2.0177200052266633,28.30118030204129
3576.8435,1.9972928508644052,20.246491184226986
3577.6682,1.9693038294675984,15.15562786929676
3578.4915,1.9380857556043667,18.269331815231492
3579.3145,1.9098812597863848,16.832750068633228
3580.14,1.8911390443286942,12.619123959903552
3580.9636,1.8860084019342258,25.518214713461397
3581.7893,1.8942491279774591,17.33081270560204
3582.6133,1.9120208443062203,13.193948810118355
3583.4395,1.9346929499051477,15.882547286873844
3584.264,1.9587798335548385,24.102760944069143
3585.0884,1.9820685538500482,19.355044635396542
3585.915,2.001692678192319,15.979150305687991
3586.74,2.013473097686858,13.37143104658816
3587.5671,2.014361317076187,16.308218421717918
3588.3923,2.0050084932981895,17.53593860825302
3589.22,1.989792683576699,19.478944753107566
3590.0457,1.9737639921288357,12.136169469295467
3590.8716,1.959194807058398,13.388131787746504
3591.6995,1.9456384824216624,19.69180387564213
3592.526,1.932549049255523,16.693015207317583
3593.3542,1.9211021509166641,16.651721368984234
3594.181,1.913805115398608,16.24271107784607
3595.0098,1.9120468428286712,11.429437391649467
3595.8367,1.914681118654104,24.21306955245973
3596.6638,1.9185063598111858,39.46631846613356
3597.4934,1.9202242088925559,13.355123188405432
3598.3208,1.9181321380764995,19.314891379906904
3599.1506,1.9125220751930698,27.174072432203594
3599.9788,1.904755845517155,15.447688313923347
3600.8088,1.895717406379364,12.70597471568687
3601.6372,1.8851771849858736,9.568262718145698
3602.4678,1.872280508426031,9.45420294608038
3603.2964,1.857323712435798,13.749471930536203
3604.1252,1.842566067843274,37.03852488504602
3604.9565,1.8318433997832917,16.270155127991018
3605.786,1.8289030919915144,15.173812932005937
3606.6172,1.8352021494646127,18.64195496342794
3607.447,1.84867398491467,19.51426127562849
3608.2788,1.8642794373798843,15.388616697627901
3609.109,1.8763097099319723,24.49768862379058
3609.9392,1.8817189144696393,18.90157587317367
3610.7717,1.8814610139521901,19.188075304082023
3611.6023,1.8792847711478553,15.79553756118775
3612.435,1.8786616802364522,28.52062087035106
3613.266,1.8803755889140144,37.170003651133705
3614.0994,1.8825269973222445,13.958183353818772
3614.9307,1.8824236284871805,21.054679991590415
3615.7625,1.8783937431494497,13.234604238421372
3616.5962,1.8702931655212454,17.265388080353528
3617.4282,1.8594661428810733,21.466777260752085
3618.2625,1.8484664370755655,20.507722161804555
3619.0947,1.8407455940015724,29.43422184337067
3619.9292,1.8390374811890013,20.83701722188074
3620.762,1.8435804046464341,29.07553920672486
3621.595,1.85128224972279,14.253350104574986
3622.4302,1.8573411744997907,19.254704221087557
3623.2634,1.8583059613749782,15.630812436725126
3624.0989,1.8542106286743305,25.373476072681044
3624.9326,1.8476282589368256,18.186330670774918
3625.7686,1.840669737445577,18.98685764654001
3626.6028,1.8329876085616938,15.749911297939688
3627.437,1.8223037904936,19.53420285776019
3628.2734,1.8070346998427176,19.744645258730838
3629.1082,1.788604144105564,11.309972947032644
3629.945,1.7708710059642894,26.653660616845432
3630.78,1.7576526717424772,18.566328723443828
3631.6174,1.7494508404827849,22.648615707127785
3632.453,1.7432960903320327,17.53385229088249
3633.2883,1.7352765139817745,27.239004756581423
3634.1262,1.7240960768459483,25.81012892749073
3634.9622,1.7123710076742167,23.87826825248423
3635.8005,1.7041830164915808,20.346052268934944
3636.637,1.7015851148568755,22.733330960208832
3637.4756,1.7026652854495181,17.4568050731287
3638.3123,1.7033090789949206,25.677987727271372
3639.1492,1.7006652533157276,43.58054848819598
3639.9885,1.6953110268425782,21.38124490562448
3640.826,1.6906533196175864,25.597187106941334
3641.6653,1.690137509723381,27.150124137421844
3642.5032,1.6946987028902394,21.634297609263058
3643.343,1.70206113855226,34.21115344005072
3644.1812,1.7082696262797765,24.265807352962003
3645.0195,1.710419004973011,20.18377372054693
3645.86,1.7082448843764215,20.16660828294636
3646.699,1.703691028288206,29.086375758824992
3647.5398,1.6988124890007066,15.738277139011473
3648.379,1.6940451917036619,42.458221127454
3649.2202,1.6879703211745696,19.44288219079945
3650.0596,1.6787097533415067,31.272149892944025
3650.8994,1.665407132809856,20.114996083336866
3651.7412,1.6492208984470176,26.626626418287657
3652.5813,1.6334590305034606,25.12010681941516
3653.4236,1.622334844758944,13.494546545322622
3654.2642,1.6193935215640036,17.865853113692566
3655.1067,1.6254846001588565,24.015098586756586
3655.9475,1.638175202580289,45.16390900584304
3656.7886,1.6530255128237044,18.11135610133356
3657.6318,1.665758495363809,27.083037424205415
3658.4734,1.6736061212684794,37.59637130967212
3659.317,1.6756718971889004,32.33607293285082
3660.1587,1.672707981797162,11.895444592562534
3661.003,1.667281965938979,20.440102772424968
3661.845,1.6631179594919239,19.107815968269104
3662.6875,1.6629451198462004,50.41952195553535
3663.532,1.6668164299748702,30.783512757975878
3664.3748,1.6725189632826933,30.84741586594696
3665.2197,1.6777679455256795,33.835615466280345
3666.063,1.6813265964057993,25.86068956578249
3666.9084,1.6821910937986404,52.6220251696394
3667.752,1.6783836734027582,16.010368262622528
3668.5977,1.667860363489125,35.5422642009655
3669.4417,1.6510589188310607,19.62676942951987
3670.286,1.6318660384059642,14.835874416844392
3671.132,1.6158096626275258,30.48760510207544
3671.9768,1.6068595307252804,22.66450111161054
3672.8235,1.6051239866764295,18.125346656360552
3673.6685,1.60736622340316,37.77357797158192
3674.5156,1.6092713518626183,18.73726544883607
3675.3608,1.6082821867932895,24.367419788881925
3676.2063,1.6051967329017414,22.399216106425317
3677.0542,1.603199568950631,21.36843982893471
3677.9,1.6049871647713,31.005169309214583
3678.748,1.610240939732614,24.994732207702967
3679.5945,1.6156305314788915,17.48906266426915
3680.4429,1.6173271953334543,21.094198768537062
3681.2896,1.6136625115896783,24.611494752933147
3682.1365,1.6061174600741956,28.029788291668257
3682.9856,1.5981543924195292,23.90667827207526
3683.8328,1.5931641165871808,24.604602640614495
3684.6824,1.5925302357205642,13.990783939461782
3685.53,1.5950849433534655,32.31263449420794
3686.38,1.5978519037801757,38.42098521763319
3687.2278,1.597753753507169,17.5132066332672
3688.0762,1.5934163380957813,24.623642318465524
3688.9265,1.5859194096403337,23.463186556348862
3689.7751,1.578220518710976,32.958195392427825
3690.626,1.5733400401438467,14.321652306515398
3691.475,1.5727745956184314,14.428058474626429
3692.3264,1.575695641135695,32.88501459372469
3693.1758,1.5796796426265975,23.49776161018235
3694.0254,1.5826139083674355,15.87190588349851
3694.8772,1.5843735244578954,20.06237276203949
3695.7273,1.5867830318656173,18.859645786805338
3696.5793,1.5917684003751016,27.919470585702037
3697.43,1.5993136612122352,30.100388759330084
3698.2825,1.6072479073015544,27.971725546751227
3699.1333,1.6127124446955665,26.95986527429203
3699.9841,1.6143675310784544,19.87707458963499
3700.8374,1.6132686477574503,24.079069278752293
3701.6887,1.6118949100075362,37.24299673848073
3702.5425,1.6119320166630344,20.18546618152713
3703.3943,1.6128212041105594,35.98194820839297
3704.2483,1.6122978039443208,26.683138198474424
3705.1003,1.6082448057155978,29.057335556881434
3705.9526,1.6001905354111308,25.134832259986382
3706.8074,1.589608472910658,22.036360623403375
3707.66,1.5793248264246733,31.841515126922978
3708.515,1.5717687919244503,23.35993555896832
3709.3682,1.5673529365312417,37.40575322638791
3710.2234,1.563727987903338,29.578770068422884
3711.0771,1.5575742483171413,21.196779729608863
3711.9307,1.5473074637015518,36.84768971113265
3712.7866,1.534308590139462,33.917341965349294
3713.6409,1.5219256621064514,28.41907221505792
3714.4973,1.5132090160046427,23.137769089686966
3715.3518,1.5098388497722917,42.83503034022817
3716.2085,1.5117469692330807,35.681485176545216
3717.0635,1.5175693537076138,23.679270387307547
3717.9185,1.5253795406456438,20.16454811228931
3718.776,1.533428644135068,35.13624587737162
3719.6313,1.5403062172978945,17.34010433066824
3720.489,1.5449590254429706,26.619078267114066
3721.345,1.5466494283173045,22.52137288737415
3722.2031,1.5454537610837675,37.50687263456355
3723.0593,1.5424621087330548,30.08418604624135
3723.9158,1.5393551414088509,25.76492100626127
3724.7747,1.5375804118546692,20.759601975356745
3725.6316,1.5378330930582953,22.808589221570916
3726.4905,1.5401805594419455,24.418906249867263
3727.348,1.5444058715182845,25.780710312686644
3728.2073,1.5498107671974932,38.93487913178636
3729.065,1.5545546250253302,57.91719507324153
3729.9229,1.5559448647459828,26.89860560976082
3730.783,1.551906272033229,25.187728312772844
3731.6414,1.5427211836613597,36.23582437465519
3732.5017,1.5310719406188773,31.755927538752307
3733.3604,1.5205241377864214,21.69117673096662
3734.2214,1.5134064946542443,26.900867063803204
3735.0803,1.5102104836596566,20.704339071158998
3735.9417,1.509956906594434,30.73404906659967
3736.8013,1.5110607001233192,30.367368563071953
3737.661,1.5116119886490211,26.060767820776018
3738.5227,1.5095076552252051,27.444843957980886
3739.3828,1.5031821564431103,41.35385427820765
3740.245,1.492725743452952,26.092264910792444
3741.1055,1.4804201241876687,16.676663526679093
3741.9683,1.46931604029376,45.85846051985784
3742.829,1.461284306028785,74.68298689435419
3743.69,1.4556219107646549,27.06189655148843
3744.5532,1.4501041650712587,32.07352536252566
3745.4148,1.4433270190703174,27.37870363789613
3746.2786,1.4361469060403074,31.180446345099504
3747.1404,1.431084150121649,38.583005395953
3748.0044,1.4300426285151955,38.272889597066126
3748.8667,1.4329590507401042,31.351144646650546
3749.729,1.4381403772711634,33.53810979785708
3750.5938,1.4435362509434362,53.40151489039602
3751.4565,1.4474902063246062,29.016974514749553
3752.3215,1.4491462455266917,24.546827733734148
3753.1848,1.4486919386937132,26.957400922204886
3754.0503,1.4475722366128334,47.649636942075645
3754.9138,1.4479144488237106,27.2706810428836
3755.7776,1.4511350634521638,24.053523416242808
3756.6438,1.4567070085702711,33.80485042873714
3757.508,1.4621485884756562,28.497453884575055
3758.3745,1.4648332008471632,28.84685075969223
3759.239,1.464057498546394,31.231095471425867
3760.106,1.4617025345209251,27.092029333447044
3760.971,1.4605916625056552,32.17908624787856
3761.8362,1.462078382758857,28.844304640434945
3762.7036,1.4652160251443633,25.821098777226666
3763.5693,1.4679237044643614,56.61541477103329
3764.437,1.4687941183815394,30.03318191045633
3765.3032,1.4677853680820319,48.08966307215271
3766.1714,1.465818854604919,24.877238859654867
3767.0378,1.4639985186155204,24.92781505553277
3767.9043,1.462921306448006,34.015229322028354
3768.7732,1.4624219285180722,38.305357116842735
3769.6401,1.461941393887244,23.769531262951716
3770.5095,1.461156279947541,22.96252330716202
3771.377,1.4599450102333775,47.90539353474858
3772.2466,1.457473090748221,21.46751282361068
3773.1145,1.4517536592565066,30.27846160119817
3773.9824,1.4407519098136277,41.17501819909997
3774.8528,1.4243791136527557,25.21283138522257
3775.721,1.4055459217504211,47.90491036023851
3776.5918,1.3883844579734022,37.7660562825303
3777.4604,1.376090884228558,81.7771279730712
3778.3315,1.3692826085883762,46.24206373031004
3779.201,1.3669012761956199,28.627488710851033
3780.0703,1.3672929104297238,37.36914877198044
3780.942,1.3689132227449825,25.10615484253762
3781.8118,1.3706603601385339,41.74640547167643
3782.6838,1.3725825046784776,32.41277786396428
3783.554,1.3761432826047666,42.084358967720036
3784.4265,1.3831915076865544,36.16107166341118
3785.297,1.393906771011872,42.22740272413538
3786.168,1.4058840808922246,32.325155562724284
3787.041,1.415168402939921,37.26953748217794
3787.912,1.4185926542553116,37.20037556290573
3788.7856,1.4157108431506922,46.08617508338634
3789.6572,1.4087310163641342,37.98543418503531
3790.531,1.4010233333991173,33.86831374386521
3791.403,1.3954966475423891,34.2771789883758
3792.2754,1.393368743178868,30.741949524399995
3793.15,1.3939684202712093,31.983145784347528
3794.0225,1.3952544658491934,37.97368779903327
3794.8972,1.395069868419488,52.260113255040324
3795.7703,1.3924976221198353,42.28884699994114
3796.6455,1.3884229540438273,31.4257220700715
3797.519,1.384882368588697,39.6830441547229
3798.3926,1.383587973446577,36.60620832194023
3799.2686,1.384903574754665,29.3314857865495
3800.1426,1.387729669348039,60.539961157473336
3801.0188,1.390194134191408,35.587949540707704
3801.8933,1.3904538967261564,30.342360656962178
3802.77,1.3873496454112184,25.499001754002734
3803.6448,1.3806776173209894,36.43692487884999
3804.522,1.3709438516666377,86.19939044854331
3805.3972,1.3590767989782122,28.000116546260458
3806.2727,1.346108196223392,31.411375915814247
3807.1504,1.3334503030407086,50.61034642279204
3808.0261,1.3230441107091968,38.24920083495547
3808.9043,1.316603477498096,37.94432224889462
3809.7805,1.3149657530404673,43.52714293017233
3810.659,1.3176276709086105,40.317390791687636
3811.5356,1.3232130992456763,32.13688806846261
3812.4126,1.3301922479197987,44.30899344788942
3813.2917,1.3372278414693137,39.89091297006246
3814.169,1.3430782904968248,32.61864032083141
3815.0483,1.3468265649857443,53.18229944919629
3815.926,1.3482971002860356,23.7518511342759
3816.806,1.348480910652886,29.432474342036393
3817.684,1.3490212736912615,30.501986435382726
3818.5623,1.3510732556385037,36.77612071577459
3819.4429,1.354431903659654,29.07822116980851
3820.3215,1.3576314421404478,38.17896296278277
3821.2024,1.3590472975727539,36.351095278052156
3822.0815,1.357941180472847,38.545081006901995
3822.963,1.3547394704890108,42.83121699514246
3823.8423,1.3503931796420292,50.957805068510275
3824.722,1.3455288308221587,29.620522886264318
3825.604,1.3402843977057326,37.93608089703966
3826.4841,1.33476299469062,33.732467851735294
3827.3665,1.3292879848614199,35.09707484802397
3828.2468,1.324388616568471,41.0996815114145
3829.1296,1.3202942922147431,62.287535514447846
3830.0105,1.3166681432426297,46.17733796012194
3830.8916,1.3124873241422397,44.2647808050123
3831.7751,1.3066353237217438,41.622144511374565
3832.6565,1.2991016129612163,38.242842492805025
3833.5403,1.2916891460411022,59.97708613477065
3834.4224,1.2874882363428704,85.7139319158626
3835.3064,1.2887635413785175,39.46280717032355
3836.1887,1.295317435013828,39.87279570867943
3837.0713,1.304493847890894,63.13273227078067
3837.956,1.3125791892850682,47.452827919114846
3838.839,1.3162497869407406,43.56669904182518
3839.7244,1.313686108709331,52.81810133706521
3840.6077,1.3051637606944986,24.738584197442556
3841.4932,1.2933046128338697,50.760988247613255
3842.377,1.282718832521446,38.673988772670555
3843.261,1.278233789967666,39.73448437659954
3844.1472,1.2827778228107272,51.18584204993389
3845.0315,1.2956448475635076,41.42920695003987
3845.9182,1.3127682415453055,64.0013529478625
3846.803,1.3285699222266596,32.71209004673703
3847.69,1.338978577885347,33.24654374092101
3848.5752,1.3428564866535866,49.19857660506133
3849.4604,1.341943496644863,44.92289784165926
3850.3481,1.3391454051423055,22.44898629860487
3851.234,1.336914374167861,40.31590115190567
3852.122,1.3362067540329123,38.63892313912885
3853.0083,1.3361953661105377,38.3218257162485
3853.8967,1.334487597447452,28.16437279306404
3854.7832,1.3281098432423384,33.35026032857885
3855.6702,1.3151093362235269,38.88255762330071
3856.559,1.2961014244587845,43.51338488340835
3857.4463,1.2749041129895622,41.047513336938074
3858.336,1.2570039506567199,51.33560375679039
3859.2234,1.2473480042004548,48.02176773891578
3860.1135,1.2476401316274393,70.47223798256734
3861.0015,1.2558724283042944,34.673503790002975
3861.8896,1.2677743249178965,70.79760320851703
3862.7803,1.2791835929336075,45.392784195450496
3863.6687,1.2873442864327185,36.2084458773433
3864.5598,1.2911377698454574,43.33981444357905
3865.4487,1.2904257616484514,46.649283327189934
3866.34,1.2858570241778442,52.77292691756782
3867.2297,1.2786669128671269,49.52177798832692
3868.1213,1.2701056885371156,40.73329911874167
3869.0112,1.2609374697403988,47.30726305137433
3869.9014,1.2512499754751834,59.99125238498319
3870.7937,1.241140330827528,38.89954380540044
3871.684,1.231525635034314,37.17605014063011
3872.577,1.2240370450014044,38.333181141751226
3873.4678,1.2203896342718514,64.08411820129893
3874.361,1.2211232143910233,32.576591609019665
3875.2524,1.2249745608331122,59.22676294729953
3876.1438,1.2291974084406014,34.39165451749066
3877.0376,1.2310086275974848,53.65805683100309
3877.9297,1.2293434670304044,51.26235181781073
3878.8237,1.2255946779853628,40.79996979105397
3879.716,1.2224203238798281,37.84436439462031
3880.6108,1.2213698019376535,89.69791240796583
3881.5037,1.2214900487052551,44.75661048613807
3882.3965,1.2201608185876627,42.82668920195278
3883.2917,1.2154649266360034,73.07707669660108
3884.185,1.2078859235611155,55.53517518728648
3885.0808,1.1997725112771012,67.49508860872169
3885.9746,1.1936694492946331,45.85668006832411
3886.8706,1.1907656804186557,49.27637104712771
3887.765,1.1907501807313492,38.27702969872617
3888.6592,1.1922545618478981,53.68078033089794
3889.556,1.1935763690669177,44.56279237410722
3890.4507,1.193460335963945,44.694072821628104
3891.348,1.191868251184223,49.91355513012481
3892.243,1.1899935107305983,46.843795963911376
3893.1406,1.1892074285428942,70.43529282075716
3894.0361,1.1899688473256296,43.96853883568286
3894.932,1.191817837358371,57.30348380693293
3895.83,1.194293117535156,48.70423017803644
3896.7263,1.1972928812564707,52.271640543338144
3897.625,1.2004179275488729,38.59259883667806
3898.5215,1.202131265123159,49.07546992222053
3899.4207,1.2001912670456019,34.53911157508268
3900.3176,1.1932238446416958,154.62523417618686
3901.2148,1.182245017366027,47.292752779907765
3902.1145,1.1707105326917822,45.49905681169151
3903.0122,1.162874635399396,57.57902551316916
3903.912,1.1612441902516393,70.92809071684763
3904.8103,1.1656520331170181,29.40546022016593
3905.7107,1.174202284582345,46.59821504577977
3906.6094,1.184993408035935,35.10961042912577
3907.508,1.197034481979261,47.33377219797002
3908.409,1.209613257165166,69.3815588945339
3909.308,1.2213297781169665,33.855713643055026
3910.2097,1.2304433837570885,35.950503714643936
3911.1091,1.2358369263678932,41.46516226867608
3912.011,1.2381116282218738,59.54964452654844
3912.9111,1.2390920547362545,53.072420025494715
3913.8113,1.240470440263901,39.04092088381986
3914.7136,1.2425978850181865,40.08698828061587
3915.6143,1.2444511808108456,45.52012030551218
3916.517,1.244590348205575,56.786456444005566
3917.4182,1.2420716632800988,33.212946599417734
3918.3215,1.2367538001299623,47.217378778816176
3919.223,1.2291837160778987,51.18763937050212
3920.1245,1.220310531451774,49.7679368351938
3921.0286,1.2113991457783528,42.20634971634825
3921.9307,1.203980478512446,54.38164814894468
3922.835,1.1994455753851694,42.16262073261999
3923.7373,1.198773084913657,40.23874866937731
3924.642,1.202014280555304,36.857698233422724
3925.5452,1.2079980199395302,43.35193547441514
3926.448,1.2144686049204967,58.250595122098574
3927.3535,1.2187649631444966,40.102479800433564
3928.257,1.2187963588976418,64.44119660242129
3929.1628,1.21392104773904,37.832917268116475
3930.0667,1.2050726296487282,37.54292540578962
3930.9731,1.1940998787061077,58.76588791760484
3931.8774,1.1831295781607114,49.42997534677801
3932.782,1.1738499326076817,103.11161870267084
3933.6887,1.1674084908572349,42.73131967613455
3934.5938,1.1642494196745072,52.5406579398157
