wavl,flux,ivar
3566.9744,3.454163449011806,112.0555943570249
3567.795,3.4801899314375335,127.91249048788694
3568.6177,3.5283497858580977,116.27622975886958
3569.4385,3.590051851058864,119.40468094215956
3570.2617,3.6435173046461147,135.41171694080327
3571.083,3.663049523540007,4.584717359052229
3571.9065,3.6367672883498217,124.85348081881202
3572.7283,3.57496313521077,119.48322341025512
3573.55,3.502062171547413,124.89516353368286
3574.374,3.440052344005436,130.92766399257505
3575.1963,3.3984501480148226,146.9165168264418
3576.0208,3.374349828733593,123.67633559892558
3576.8435,3.3606972930255288,151.40283471758295
3577.6682,3.3520112965627167,127.52901406998423
3578.4915,3.3465274636217917,135.817342129135
3579.3145,3.34458063400047,132.6685544869352
3580.14,3.346509794887641,129.400536124773
3580.9636,3.3515328748729862,133.498089771503
3581.7893,3.358069646899341,128.58001997212588
3582.6133,3.3644169241791535,137.62830022119448
3583.4395,3.36920394524199,127.47633829916035
3584.264,3.371286502032,123.96063152159827
3585.0884,3.3700034740190907,107.50004623524126
3585.915,3.3655224164313324,136.52722334083734
3586.74,3.358981497851608,122.95200533041265
3587.5671,3.351785691902271,132.68700762028152
3588.3923,3.3448750643987917,127.2831703896602
3589.22,3.3383152623404344,154.48282231074825
3590.0457,3.3318432876010085,139.428955364627
3590.8716,3.3251965658942937,142.30398759133493
3591.6995,3.3181853366752754,139.1627973577417
3592.526,3.310541930759248,127.03868537058274
3593.3542,3.301915329875821,141.0650886446142
3594.181,3.2923816689304144,138.35674179623865
3595.0098,3.282414516219496,145.15107577775348
3595.8367,3.272711421359413,135.98155425625623
3596.6638,3.263731661587617,131.0112002118043
3597.4934,3.2560503071680342,142.55220968952
3598.3208,3.250813260384427,131.03327648633461
3599.1506,3.2492663288850787,149.7041186464664
3599.9788,3.2517430211627025,126.59642387906324
3600.8088,3.2567664364249787,143.43183617012204
3601.6372,3.2613643891905255,120.183325343554
3602.4678,3.262532934106106,134.91855140452344
3603.2964,3.258704720074414,125.40388894703625
3604.1252,3.25044896347111,133.0439305102335
3604.9565,3.239878638205926,143.12069395529414
3605.786,3.2295058521432614,133.1151162762511
3606.6172,3.2209748455092,137.03709774009096
3607.447,3.2149670301446394,149.73616814258668
3608.2788,3.2113753346062888,124.40866912410486
3609.109,3.2097130434213375,135.59002149112058
3609.9392,3.2091114515923747,132.31651887308448
3610.7717,3.20846822087591,136.28312482766933
3611.6023,3.20692089315028,144.7429620684132
3612.435,3.204421261854018,151.53827110910998
3613.266,3.2018217335244095,150.61319567396885
3614.0994,3.2001063929319007,156.31868652905692
3614.9307,3.199462300145617,146.66603856820316
3615.7625,3.1988686358217744,140.44378251174206
3616.5962,3.1966322328421386,149.91079451755067
3617.4282,3.1914563663481887,137.10802823707445
3618.2625,3.1832910580551266,154.1510489945783
3619.0947,3.173613592488419,134.22366855165626
3619.9292,3.1646072579588305,158.2450775589146
3620.762,3.1582381047074968,155.4896564678712
3621.595,3.1553089540446164,140.83238741771245
3622.4302,3.1554197794713894,148.0715927117466
3623.2634,3.1572400295719514,142.35595444808766
3624.0989,3.158922971073433,152.01592234893295
3624.9326,3.1585756348722778,149.02152826364556
3625.7686,3.1549779714381514,133.47034385188923
3626.6028,3.14827149876517,153.17531345553755
3627.437,3.1399046888987305,165.81165062004638
3628.2734,3.131692058489916,164.44136711612765
3629.1082,3.1246964803487427,143.25705511902274
3629.945,3.1186454503124983,161.02429135936958
3630.78,3.1126214474035625,167.74468816457386
3631.6174,3.105850585055897,143.92385662816076
3632.453,3.098392343419295,154.8568451649641
3633.2883,3.0910343764329755,148.54071488707496
3634.1262,3.0849711234854116,158.44671728317658
3634.9622,3.081266568773388,171.10799295907242
3635.8005,3.080185095070909,137.93366959799116
3636.637,3.0810892942844164,154.43417148599468
3637.4756,3.082834525295705,151.48651233448348
3638.3123,3.0845458905254497,153.66382508147592
3639.1492,3.086154231239554,174.06921574728548
3639.9885,3.0880970043686813,156.63194750875977
3640.826,3.0903723122359885,141.20193044767296
3641.6653,3.0919370699519897,169.1643365285122
3642.5032,3.091180661423376,128.36300560017338
3643.343,3.08723955701955,152.71810364917437
3644.1812,3.0807726515081804,150.63002145976915
3645.0195,3.0733237830641453,170.06140136472564
3645.86,3.06612858653423,146.94462264521863
3646.699,3.059615590115656,166.60806780566827
3647.5398,3.0536972068715635,164.69327956922908
3648.379,3.0484894516276144,158.14562177102744
3649.2202,3.044278269092717,163.58151126184464
3650.0596,3.0411625357597107,164.96860050156934
3650.8994,3.038532846114396,170.5100019391298
3651.7412,3.035189252321971,149.10946667102218
3652.5813,3.030082797821131,161.91918574208546
3653.4236,3.023145742665075,153.15109037800173
3654.2642,3.015621645171585,178.533184404587
3655.1067,3.0092108896370604,160.0742005691963
3655.9475,3.0051012173009584,168.66745817345725
3656.7886,3.0033873819141452,171.4274255797973
3657.6318,3.0035109811368192,150.84526390456423
3658.4734,3.0048544853652785,144.42554856545848
3659.317,3.006939512586758,177.30005160401436
3660.1587,3.009158003726527,162.77293952508865
3661.003,3.010642610497701,152.1957595668009
3661.845,3.010538158675652,169.90429896941245
3662.6875,3.008551835182259,177.80339518166875
3663.532,3.0050755520905,166.4302693637062
3664.3748,3.0007912644133623,159.55088336667885
3665.2197,2.996068371095795,154.28418550803315
3666.063,2.9910068234420817,131.07880054281915
3666.9084,2.9858249467532376,170.46528145964646
3667.752,2.981287226845858,178.05118996910173
3668.5977,2.9783189022653738,175.3873269414994
3669.4417,2.9773871108566476,163.37972352621756
3670.286,2.977939886647595,170.62357525684803
3671.132,2.9784451050898686,170.01033784399897
3671.9768,2.9768584005927066,170.62359517501224
3672.8235,2.9714834364381795,152.18193111744597
3673.6685,2.962049007991657,150.1922357349515
3674.5156,2.9501904288799197,158.67329405625253
3675.3608,2.9390519416231777,182.19194458534938
3676.2063,2.9314796406163737,163.7311277663169
3677.0542,2.9285499784883644,153.0453931044144
3677.9,2.929174901930304,190.39854616276216
3678.748,2.9310967882762684,157.3380662004837
3679.5945,2.932412091573653,169.38766065064914
3680.4429,2.9323794432595167,159.84245382458644
3681.2896,2.931051437307918,177.33587846024037
3682.1365,2.928403548831919,176.37487298380424
3682.9856,2.9239479076193664,164.41131422898553
3683.8328,2.917292870521175,172.25055295672357
3684.6824,2.908788928112179,176.43073181016808
3685.53,2.899742571049058,162.1955181630681
3686.38,2.8916392047483663,183.98877891221937
3687.2278,2.8856800197241497,174.32883677608316
3688.0762,2.8824192715331396,190.19997271905868
3688.9265,2.881800826118408,180.93563213787786
3689.7751,2.883021527142096,176.9928358918858
3690.626,2.88462055854955,180.5532980982503
3691.475,2.885028738940356,175.03874838897633
3692.3264,2.883392148969263,163.269878489569
3693.1758,2.8800639389243057,187.45377337891773
3694.0254,2.876396984032529,175.96588630205895
3694.8772,2.8740723434143525,189.7032919943859
3695.7273,2.8744205079294445,177.59339649991918
3696.5793,2.877928036976262,173.64760446491604
3697.43,2.883832435901179,163.5644595589516
3698.2825,2.8898454046720357,176.27909558557587
3699.1333,2.8924997326002106,171.45783847498396
3699.9841,2.8889529858550085,142.15101127933772
3700.8374,2.8789329914674675,190.11415422034443
3701.6887,2.865263494933329,179.55458597984983
3702.5425,2.8517466506848743,178.32737956798394
3703.3943,2.840943173067929,192.3522309513583
3704.2483,2.833085167718099,167.30311644726123
3705.1003,2.827224695711911,186.69316219060659
3705.9526,2.8223770591645563,162.70111905619504
3706.8074,2.8182233231877944,182.04505304539882
3707.66,2.8150988636745864,167.96082511858026
3708.515,2.813446569963574,176.33273622939743
3709.3682,2.8131190624531004,199.0688738087222
3710.2234,2.812871385829373,172.27557176183555
3711.0771,2.8109577667904855,186.4232853878189
3711.9307,2.806579602850337,186.1771845612566
3712.7866,2.8007723716941406,193.06504361847382
3713.6409,2.7956228355697865,208.3882668466133
3714.4973,2.7921561911608714,203.3988500805695
3715.3518,2.7892995790739805,173.10700475385667
3716.2085,2.784830558265375,186.4515700240763
3717.0635,2.7775510046466105,188.38878961908893
3717.9185,2.768250634232922,180.43908576596954
3718.776,2.758839658034354,171.42519151080927
3719.6313,2.750829960986234,198.8392936623273
3720.489,2.7444271046150606,190.82925828825714
3721.345,2.739259344684053,196.07683918887898
3722.2031,2.7352390121157764,200.3940398696993
3723.0593,2.732942517211356,208.71111896218596
3723.9158,2.732921992966649,199.56462305130475
3724.7747,2.7349415785620623,194.96897393347186
3725.6316,2.737653375392224,202.76575192292287
3726.4905,2.7390525259189125,179.32249844009164
3727.348,2.737308729901487,184.71054210765456
3728.2073,2.731665185164741,197.74075754028203
3729.065,2.7229206229711047,179.3702662055281
3729.9229,2.713033053060829,185.57811127490478
3730.783,2.7042387247983783,199.69892237695709
3731.6414,2.698244577077808,189.196296521633
3732.5017,2.695687459068923,216.9811701230023
3733.3604,2.696203969082327,204.49593666302223
3734.2214,2.6984986147572565,191.93227234431467
3735.0803,2.7006149424956076,195.15755021792108
3735.9417,2.700578034175945,187.7354588763583
3736.8013,2.6972342862965255,207.75225366767293
3737.661,2.6908757356723316,207.0150719235217
3738.5227,2.6829942582135065,201.3926615858859
3739.3828,2.6753240746830103,211.5163229739541
3740.245,2.668627044208145,234.95107218479728
3741.1055,2.6625904957072595,208.17628612241242
3741.9683,2.6564025557636097,184.44482157507045
3742.829,2.6497208032427335,212.17410597485113
3743.69,2.642776652469836,215.51336451400604
3744.5532,2.6360528251153723,218.33507796174086
3745.4148,2.6299848034471065,225.78764756279756
3746.2786,2.624815785372279,197.02129760741832
3747.1404,2.6207875866061205,246.69172911098553
3748.0044,2.617953271356359,218.5965262955718
3748.8667,2.616051059986995,215.42729157154054
3749.729,2.6144187097454967,219.42751694661678
3750.5938,2.6122727081354715,229.17452503649153
3751.4565,2.609166550173823,229.8131398383701
3752.3215,2.6053407108050677,204.78705666594428
3753.1848,2.601812348308854,230.8585378521672
3754.0503,2.5997723472254286,217.26436026778123
3754.9138,2.599742914491448,266.0105983626006
3755.7776,2.600990502471934,230.61906287948761
3756.6438,2.6018940810267486,182.45341610113684
3757.508,2.6009307814467713,212.28971817459225
3758.3745,2.597513579681723,210.67876783360515
3759.239,2.5920851777054894,212.65819659060506
3760.106,2.58553962804703,225.0160663346859
3760.971,2.578786271139092,240.11979702592217
3761.8362,2.5723919283261814,220.11111785260582
3762.7036,2.566633576252002,194.37149493649426
3763.5693,2.561644357687567,197.99549676195306
3764.437,2.5574353634705402,220.75730299302344
3765.3032,2.5540164973360446,222.9080805318919
3766.1714,2.5513633310637522,226.167220068651
3767.0378,2.5496064072777305,224.96727263533586
3767.9043,2.5490772473457555,265.6541409032638
3768.7732,2.5500976974459073,244.7443956851895
3769.6401,2.5524736476282572,234.84765602521566
3770.5095,2.555313039396056,220.2655883008345
3771.377,2.5574278616692334,217.28547645402722
3772.2466,2.5581338059705496,218.94621545949144
3773.1145,2.5575559626909077,202.02023046155924
3773.9824,2.5562495455255756,237.09081497983854
3774.8528,2.5544654131726285,209.69492335964102
3775.721,2.5518189258398127,207.3159723063384
3776.5918,2.5475507316238883,237.52407866093293
3777.4604,2.541265974791009,232.27264328575532
3778.3315,2.5333059257952772,221.31198901420572
3779.201,2.524753892778052,238.94893717030303
3780.0703,2.516697551618647,235.45675968268353
3780.942,2.509683491741296,233.08559132499516
3781.8118,2.5037077044011857,231.70068261715085
3782.6838,2.4986178255297924,229.60010704188778
3783.554,2.4947581525652263,230.36440795923542
3784.4265,2.492811923947423,249.82154516444976
3785.297,2.493180380347889,251.73936228577324
3786.168,2.4952867873576343,221.33473056994282
3787.041,2.497654515871728,226.66783198214583
3787.912,2.498643975013973,226.1682909928985
3788.7856,2.4973840869368926,236.80827386875114
3789.6572,2.4941430958376416,238.5865782060042
3790.531,2.4899539675718367,240.72779776936719
3791.403,2.485903312299096,263.2609792429617
3792.2754,2.482430417658406,230.00764251825848
3793.15,2.4791443545549545,277.76627720961136
3794.0225,2.4751103689097005,220.948842686777
3794.8972,2.4694356773806483,225.2719324451411
3795.7703,2.4620264514461088,249.15454791767496
3796.6455,2.4536372482487976,243.0420439182348
3797.519,2.4454580300490227,255.08317346177313
3798.3926,2.4383224414663376,251.6891415042157
3799.2686,2.4326195349188438,242.84014163900233
3800.1426,2.4286264024128963,240.63744833513152
3801.0188,2.426565836557293,245.36048092575672
3801.8933,2.4264782429352283,242.27714157753508
3802.77,2.4279345399550034,237.03914232325943
3803.6448,2.4300419524847587,224.4678711577925
3804.522,2.4317141642597586,242.57864241097462
3805.3972,2.4320231173196074,236.08261509623375
3806.2727,2.4306107453389187,271.4473958580679
3807.1504,2.4278375639248977,252.454595760541
3808.0261,2.424609743077982,261.00482833582225
3808.9043,2.421797303022461,239.4045062512183
3809.7805,2.419795672614482,258.4219610882135
3810.659,2.4183872223794953,256.67470594741513
3811.5356,2.4170781991208132,271.1541818762557
3812.4126,2.415381163303541,252.73773061863187
3813.2917,2.412887418875079,242.56637245409132
3814.169,2.4092290148470243,260.56159063402345
3815.0483,2.4040729497804607,242.44804638872145
3815.926,2.397378665262428,255.6962036559414
3816.806,2.389505089834062,246.10490898853897
3817.684,2.3813626911105863,245.96721058942774
3818.5623,2.374048429979735,263.2489299385181
3819.4429,2.3683983306791263,283.87954813735547
3820.3215,2.3645726294323977,243.68839454336447
3821.2024,2.36191985845542,254.70075323479912
3822.0815,2.35953383237039,255.1258709768671
3822.963,2.356839130603511,249.31617388180382
3823.8423,2.3539060316062552,278.0457649826361
3824.722,2.351106013851301,288.75744980413776
3825.604,2.3486416066043834,265.9750399719895
3826.4841,2.3463751244403928,269.9270415366617
3827.3665,2.3439563827088494,245.3304437320379
3828.2468,2.341101360885675,269.39156570734747
3829.1296,2.3376722518966733,272.06730045563586
3830.0105,2.3338100130292783,275.07186835385545
3830.8916,2.3298372352910004,287.77920804512553
3831.7751,2.326005247017193,252.5635677759631
3832.6565,2.3221896757633047,283.423737028037
3833.5403,2.317820033491378,258.94498335846436
3834.4224,2.3123749740489767,294.21912613865055
3835.3064,2.3057462768980237,258.2435072727744
3836.1887,2.298466664025998,304.8768504143042
3837.0713,2.291432650332094,277.00677471224657
3837.956,2.285585668898605,314.64034610546287
3838.839,2.281507825047401,290.4596545068078
3839.7244,2.279030687367791,308.22253677580267
3840.6077,2.2774646213900263,268.3908061491955
3841.4932,2.2762149243867085,254.49805571297782
3842.377,2.2754679883229,315.6942403462038
3843.261,2.276128450618827,282.17931020029863
3844.1472,2.2790335063889455,272.1115872422048
3845.0315,2.28402895258943,277.5741119208829
3845.9182,2.289874827181812,289.3257513361997
3846.803,2.294889747483881,269.99991242745205
3847.69,2.2979995859843796,284.07245288668713
3848.5752,2.2990623490211837,288.84328307037106
3849.4604,2.2986585672254347,274.0297930130361
3850.3481,2.297574787265811,259.10975476894606
3851.234,2.2965265960566006,284.3292610110836
3852.122,2.2959859711022044,277.03562967580217
3853.0083,2.296005164925617,285.0261105252661
3853.8967,2.2960747052734907,269.8170140944099
3854.7832,2.2953508974137633,270.4111341935806
3855.6702,2.2932501011509334,270.73402125247867
3856.559,2.2899889828529587,262.1542717274822
3857.4463,2.286627356681147,299.9812424973743
3858.336,2.2844055384338744,272.3038332867615
3859.2234,2.283937771156336,284.1812542467775
3860.1135,2.284674627079945,290.01421869331074
3861.0015,2.2851470900593887,280.13471371003044
3861.8896,2.283814110584065,281.446858768128
3862.7803,2.279946921237602,272.0337713679447
3863.6687,2.274072399055236,270.12790114268773
3864.5598,2.267543753281988,280.76586153161253
3865.4487,2.261807492332539,279.8311103051935
3866.34,2.2574804795481054,279.67542204911734
3867.2297,2.254186551556175,315.6054198796506
3868.1213,2.2508223288726477,271.9860896244811
3869.0112,2.246324987366028,304.3566496564214
3869.9014,2.24022375714123,270.83993924053124
3870.7937,2.232798596158951,277.4929051562822
3871.684,2.2247940913257183,305.9685004390393
3872.577,2.2167392687278213,297.2833557166097
3873.4678,2.208762421629665,303.1915938645154
3874.361,2.2005047890160534,299.6783681058091
3875.2524,2.1915963211624554,299.3876920237595
3876.1438,2.1817877934600656,303.34062712248857
3877.0376,2.1710812105226416,329.06819909286617
3877.9297,2.1598051132123297,306.73297357876504
3878.8237,2.1484482965695726,331.4115932478107
3879.716,2.1378361489060667,344.8722567298538
3880.6108,2.128754286483267,353.0179971280923
3881.5037,2.1217636303276914,349.8983899514253
3882.3965,2.116782577540592,325.42264822728913
3883.2917,2.11326338660528,340.4596280782416
3884.185,2.1105396818695383,322.5074915927661
3885.0808,2.108033459620336,298.038032664579
3885.9746,2.1053527286773783,313.10162165068755
3886.8706,2.102148849559445,386.3610414062089
3887.765,2.098146407630789,317.0681218519944
3888.6592,2.093250199348172,318.2611732689365
3889.556,2.0878187164044224,349.3720028697769
3890.4507,2.082847809331296,323.3465848927049
3891.348,2.0795887148397636,363.0216719517266
3892.243,2.078938183932658,370.5455581049377
3893.1406,2.080797303992677,335.53479291486696
3894.0361,2.084161289448248,345.7281182679091
3894.932,2.0878411858723176,313.91051507010417
3895.83,2.09114544136153,298.8780556113562
3896.7263,2.0940023946583803,366.87029216865886
3897.625,2.096702400659196,330.7269231274215
3898.5215,2.099536724753942,328.955421938683
3899.4207,2.1028540270731995,325.1685362888966
3900.3176,2.107114932166462,325.7011371351577
3901.2148,2.11286414924599,337.38744128777887
3902.1145,2.120386764610184,351.66442353736176
3903.0122,2.1293602729185532,312.8155542873158
3903.912,2.1390146137773707,308.5112815344094
3904.8103,2.1482516930060997,311.32667209497083
3905.7107,2.1561139070649995,344.72371309544513
3906.6094,2.161921451204259,299.64856255775845
3907.508,2.1657280035447553,281.3625011757194
3908.409,2.168473936390594,308.0381197053729
3909.308,2.171714568481229,316.58912444570245
3910.2097,2.176811098061406,324.0719567673129
3911.1091,2.1839233273724843,328.6056749627493
3912.011,2.1918913152696398,325.04121185505574
3912.9111,2.1988510606046123,268.71613785298246
3913.8113,2.203531857881117,274.0036361597064
3914.7136,2.206009727929981,307.1801301010242
3915.6143,2.2079069995817053,285.71992262008985
3916.517,2.212256681848786,317.446041292187
3917.4182,2.222903642694433,313.59651745992875
3918.3215,2.243139596299598,289.0430293546493
3919.223,2.2727453011626872,317.61778755460415
3920.1245,2.3057470873728514,300.47774620787476
3921.0286,2.3310876412422203,317.19593043612656
3921.9307,2.338070709183618,314.84337598326806
3922.835,2.323700293263838,298.83512827453706
3923.7373,2.2946741211304693,295.2060078934135
3924.642,2.262259512795603,281.11819947649093
3925.5452,2.235557844963072,323.8617548461013
3926.448,2.217565398563668,290.5162627399436
3927.3535,2.2068439498386296,324.1618393922517
3928.257,2.2006439710756536,308.6778759334151
3929.1628,2.1965312535356065,280.3128491803519
3930.0667,2.1928720813736478,283.9347606971616
3930.9731,2.1886666309980947,308.11177102175736
3931.8774,2.183651664990727,316.7486320583298
3932.782,2.178078764879916,323.5459680065642
3933.6887,2.172333533427331,324.2964484401635
3934.5938,2.16660470685949,302.66346928409916
