wavl,flux,ivar
3566.9744,2.041409745847477,138.34159240984732
3567.795,2.0400509939407647,118.43679004279707
3568.6177,2.0392918578481067,128.31571535346538
3569.4385,2.0379736362116923,126.47453329991201
3570.2617,2.0363037148583705,152.448793755529
3571.083,2.0351909577766483,120.96624543527842
3571.9065,2.03512278525012,121.00756541438125
3572.7283,2.0357153037035713,125.42675985315677
3573.55,2.0359891798225003,153.7231172634298
3574.374,2.0349835699813585,131.03695703646133
3575.1963,2.0324341189853294,192.32325585729942
3576.0208,2.0292409042027026,126.87294942678565
3576.8435,2.027353407151875,142.76795711605195
3577.6682,2.028658988096265,123.80057724976497
3578.4915,2.0335715399143695,130.3729669705042
3579.3145,2.040411151102512,135.1400433085328
3580.14,2.046266309299499,127.14192362697169
3580.9636,2.0486244872827264,123.80151921860131
3581.7893,2.046680214991668,139.66262823529095
3582.6133,2.0411681862595343,119.13661715654794
3583.4395,2.033238063378558,122.09574144133761
3584.264,2.0235910813331923,142.8057639440714
3585.0884,2.012275054030655,114.77483571335736
3585.915,1.9992876934770358,132.85242938536385
3586.74,1.9852574669719172,143.96172280858778
3587.5671,1.9713763194532647,143.88310340457576
3588.3923,1.9594915478484216,177.58213877731254
3589.22,1.9514867679491146,154.59675340200306
3590.0457,1.948822481638417,144.180540994222
3590.8716,1.951467769169164,166.6506326979223
3591.6995,1.9576063513021316,132.35131988883953
3592.526,1.9642304146777545,121.8417858834594
3593.3542,1.9686986893528202,149.4404871036872
3594.181,1.9698750241811338,137.74343600090413
3595.0098,1.9683960589497596,123.34212578306429
3595.8367,1.9658516172609497,167.83448728894876
3596.6638,1.9635894738287554,128.68052779483276
3597.4934,1.9619559587028126,123.41091502040038
3598.3208,1.9604723455050135,130.42561449145393
3599.1506,1.9586947364569656,130.85205831196586
3599.9788,1.9569402868654202,175.79942466612854
3600.8088,1.9559594626715278,131.1307911015102
3601.6372,1.9559956552940059,115.79047180275725
3602.4678,1.9562593129379453,119.55169438592608
3603.2964,1.9554463269838978,143.6735854861454
3604.1252,1.952634513561318,169.287013847652
3604.9565,1.9476263887512737,169.5843164202883
3605.786,1.9407541545829954,135.33169898733888
3606.6172,1.9324249304053551,158.23193261098888
3607.447,1.9231403347701794,143.4537584012714
3608.2788,1.913479074924592,145.03358938175873
3609.109,1.904367966381725,143.92413793530298
3609.9392,1.8968308689153808,172.1687393044142
3610.7717,1.8916854918416537,146.6371799986395
3611.6023,1.8891896733372557,146.21673429387874
3612.435,1.8889146134410468,169.54495070550064
3613.266,1.889987866660319,175.50202936358545
3614.0994,1.8912465179200932,186.10857895030642
3614.9307,1.8914518827105202,135.72581053471578
3615.7625,1.8898506647095217,137.00458273093707
3616.5962,1.8868184719780716,135.65436727187043
3617.4282,1.8839682106833466,133.39654867213443
3618.2625,1.883157307699755,137.03628154705228
3619.0947,1.8851098381545817,139.91763961974337
3619.9292,1.8887346154243365,173.14110677245267
3620.762,1.8918532201347966,141.20630341464707
3621.595,1.8928490415791905,128.65764172727634
3622.4302,1.8916738875458825,144.17348232539754
3623.2634,1.889524916936894,149.50392374896546
3624.0989,1.8875710433962276,163.87687750031114
3624.9326,1.8860671029462102,131.3329414169433
3625.7686,1.884404407097151,158.62413634518776
3626.6028,1.8818830946701117,159.56518846649314
3627.437,1.8783127680711964,199.21196761746154
3628.2734,1.8740730598169282,166.85330163584374
3629.1082,1.8697203417536847,152.59443275534497
3629.945,1.8654128966402073,139.75731432572363
3630.78,1.8608694713741232,170.52974564831297
3631.6174,1.8556648487929275,203.2711324797615
3632.453,1.8498813245660666,144.23164830786303
3633.2883,1.8442268457082012,171.8457606421459
3634.1262,1.8397142619115425,176.41961673716955
3634.9622,1.8370098834227193,164.04334100132934
3635.8005,1.8358324890093605,143.65814783859435
3636.637,1.835091988097468,183.98018400407838
3637.4756,1.8335964917432135,190.95297242861503
3638.3123,1.8309931329903522,170.5294638795497
3639.1492,1.8280505203376376,160.61266146761403
3639.9885,1.8260663222722429,199.90452731501986
3640.826,1.8258897926673228,176.82047670550102
3641.6653,1.8273379212798073,196.47197120122527
3642.5032,1.8294514800864605,168.84515023044352
3643.343,1.8312380588806032,181.65406809784386
3644.1812,1.8322352542655578,151.82804006307188
3645.0195,1.8325472748272535,155.98873995515888
3645.86,1.8323500449027157,151.0215997739327
3646.699,1.8314703889603836,164.24519830056838
3647.5398,1.8294352565701386,158.66655835707377
3648.379,1.82592608352895,158.4803421618093
3649.2202,1.8210640205336992,151.53466837545784
3650.0596,1.8153669721908394,152.49175043537636
3650.8994,1.8092750941136635,182.5696438277583
3651.7412,1.8029829962594326,155.09420950666538
3652.5813,1.7967464380279456,168.01930092122032
3653.4236,1.791209672657741,195.1024416379042
3654.2642,1.7874225086334057,194.5916856543914
3655.1067,1.7860041227605417,233.21393225160173
3655.9475,1.7864860819974813,164.3342403955172
3656.7886,1.78736165787492,196.0136140548543
3657.6318,1.7870099225707123,181.67209572859002
3658.4734,1.7847268767507818,165.37692262827062
3659.317,1.7809994613399678,170.6455797005927
3660.1587,1.7767811067409545,165.9665977344853
3661.003,1.7723017489646706,204.5749454054375
3661.845,1.7668430111425324,175.99780191959505
3662.6875,1.7596358092882658,166.89319742948496
3663.532,1.751181508912745,191.44419143574785
3664.3748,1.7434480561162897,197.07446846662756
3665.2197,1.7384912011238127,195.33097766634938
3666.063,1.7371474358611918,170.27113315571987
3666.9084,1.738619252084011,149.3947087599047
3667.752,1.7412703305801882,203.29461239372108
3668.5977,1.7435915691967407,207.72522368994254
3669.4417,1.7446608113110587,198.46421869672767
3670.286,1.7442214657152237,183.0954041631353
3671.132,1.7424432599069746,190.604949637565
3671.9768,1.739625021788169,198.00588628687004
3672.8235,1.735940313936402,176.72108267993806
3673.6685,1.731520639928848,206.39734956207636
3674.5156,1.7265668768798594,164.21879119236561
3675.3608,1.721477795931062,187.29004715515535
3676.2063,1.7166337203841018,188.30256606386905
3677.0542,1.7122674295470843,189.86157266548335
3677.9,1.7084034260270693,186.00393854085223
3678.748,1.704768327865249,197.55915582705302
3679.5945,1.7009642001249592,190.13741732973327
3680.4429,1.696599481165521,153.90026860730458
3681.2896,1.6916442300978625,209.90531639172684
3682.1365,1.6865878643210626,173.53650028966544
3682.9856,1.6824273724867391,182.79756089227072
3683.8328,1.680231883229368,179.33282956348498
3684.6824,1.6803437661065423,197.25444939799615
3685.53,1.6819571881384823,222.96246638444944
3686.38,1.6834688509881666,199.23491154875398
3687.2278,1.6835215331844373,189.13598853167983
3688.0762,1.6819421257426503,228.08798768416816
3688.9265,1.6797177720858527,218.19242599084842
3689.7751,1.6781205457169905,221.42653659692886
3690.626,1.67764107526721,202.1122401842191
3691.475,1.67766555369673,161.08311099794162
3692.3264,1.67702366775533,194.19482514699092
3693.1758,1.674935045898853,218.99179872030078
3694.0254,1.6715048481741221,206.1206249293955
3694.8772,1.6674741795762693,218.38855699920634
3695.7273,1.6636581174417067,209.7178701864891
3696.5793,1.660495295602009,208.87142609766914
3697.43,1.6581059158339488,194.2523575650393
3698.2825,1.6563959337308642,188.75062169523594
3699.1333,1.6551991418220442,221.69787031759267
3699.9841,1.6543170911747829,180.2238045943045
3700.8374,1.6536590094161248,187.91732636622066
3701.6887,1.6533863958803432,229.34614587040818
3702.5425,1.653879325684111,196.142781068208
3703.3943,1.6554260107951948,220.16066798245592
3704.2483,1.6577921272720417,203.94064346894618
3705.1003,1.6600137077443067,188.04032715925908
3705.9526,1.6607931776203144,217.24554079093198
3706.8074,1.6591978580173496,179.2141707606197
3707.66,1.6552690800915253,193.15895746856103
3708.515,1.6499781670462346,234.6876093806169
3709.3682,1.6447468043319313,182.69706112653233
3710.2234,1.6406781893127134,198.91254783041737
3711.0771,1.638245667754291,206.57837436888056
3711.9307,1.6372453602452635,217.7745033012282
3712.7866,1.6370737594813602,198.12766898418744
3713.6409,1.636963627751357,192.85483525909535
3714.4973,1.6361406324294672,209.00860372553004
3715.3518,1.63395374695092,185.69021210487975
3716.2085,1.6299720987954165,186.14630650854826
3717.0635,1.6241753996471477,203.0622357799515
3717.9185,1.6170434248188819,209.32887805857453
3718.776,1.6095559104210786,227.47874860999534
3719.6313,1.6029483387147716,218.86930705894957
3720.489,1.598031304326788,205.86235713752495
3721.345,1.5949125593996765,209.6827616959208
3722.2031,1.592962719642518,235.88193859258556
3723.0593,1.5913098204884768,172.20568830619882
3723.9158,1.589279753945508,192.40410308096475
3724.7747,1.5866909785695669,205.96554852719657
3725.6316,1.5838932038483313,228.12291312753783
3726.4905,1.5814778014324697,205.86955249007482
3727.348,1.5798890383736521,203.1078884000545
3728.2073,1.5789951596176763,214.52573596545128
3729.065,1.5780979730342564,228.88674897535424
3729.9229,1.5763942881521746,232.28120231752328
3730.783,1.5736062045423624,239.68175163903464
3731.6414,1.570232387357926,201.6748472719816
3732.5017,1.5671038013933374,231.53627379859034
3733.3604,1.5647766935871141,274.8275143827854
3734.2214,1.5631541633055295,219.62375512048035
3735.0803,1.5617451748570277,223.81198297234104
3735.9417,1.5600928443008732,220.10645949182555
3736.8013,1.558095344039873,211.9050099768361
3737.661,1.5559369056399492,201.7948801930391
3738.5227,1.5538745685065805,228.2309588751993
3739.3828,1.5520509148138133,237.3820939596142
3740.245,1.550388121577684,245.84592429989252
3741.1055,1.548701927413477,210.9740264318754
3741.9683,1.5468087393354246,231.09003765337104
3742.829,1.5446411616850007,214.80881065227499
3743.69,1.5422344995051722,247.15681865111156
3744.5532,1.5397509499296913,263.8041421641374
3745.4148,1.5374465203506151,254.6337704227041
3746.2786,1.535435551489949,217.71511728328363
3747.1404,1.5335735563498494,224.21814252773723
3748.0044,1.5315359336146244,239.30643114300622
3748.8667,1.5291494801062653,219.9427162762314
3749.729,1.5264663662534348,233.13496824645776
3750.5938,1.523593696157167,239.70476782383972
3751.4565,1.5205532249791984,219.08091054222058
3752.3215,1.5172981339161828,256.89891730824286
3753.1848,1.5139437838050949,240.63804006555708
3754.0503,1.5107516037579976,213.023813822192
3754.9138,1.5080708697022593,268.0947708377045
3755.7776,1.5061272147885783,260.3642818673261
3756.6438,1.5049452507628718,256.1132704776872
3757.508,1.5043186075123498,251.34850828250964
3758.3745,1.5038335693936873,230.3964491336736
3759.239,1.5029879633517902,228.63749287667935
3760.106,1.5013150141356317,221.74615223101398
3760.971,1.49854404778796,276.29894348825826
3761.8362,1.494665238660189,235.3356807190997
3762.7036,1.489949271186604,285.3383899673684
3763.5693,1.484931751000667,252.1113516747787
3764.437,1.480206085637786,281.951818653811
3765.3032,1.4763236171340577,251.30590637365495
3766.1714,1.4735672824927266,320.1068160680329
3767.0378,1.4719328715432933,239.91756354189826
3767.9043,1.4710975265027522,270.5225209212879
3768.7732,1.4705579938861573,226.58649012742077
3769.6401,1.469864741932042,225.76830104643966
3770.5095,1.4688844094878164,266.1490974096841
3771.377,1.4678871730089769,288.620990710932
3772.2466,1.4672431112794033,297.641824629165
3773.1145,1.4670075772208047,269.49926072210945
3773.9824,1.4667703164795185,275.42262039047614
3774.8528,1.465945761632549,260.207810319232
3775.721,1.464185582734492,266.48838652230745
3776.5918,1.4615674223017874,257.1119612614557
3777.4604,1.4586418872166025,220.21504502847102
3778.3315,1.4562528607950855,279.77255629034795
3779.201,1.4552518546804105,260.08311798849127
3780.0703,1.4559339736819703,267.84612782225025
3780.942,1.4577172183853764,245.58454947041835
3781.8118,1.4593114463835681,252.11168238312274
3782.6838,1.4594463238251898,252.2895753994208
3783.554,1.4575766908574541,250.97062163585343
3784.4265,1.4541180350370766,260.492392596109
3785.297,1.4501417009035733,257.93829920080975
3786.168,1.4466857587522663,248.6802575184189
3787.041,1.4442442924530474,230.57145384196735
3787.912,1.4426230168924745,255.8575788661135
3788.7856,1.4411987405656046,263.8048676937915
3789.6572,1.4394700908466216,278.2561786837277
3790.531,1.4373297666547744,282.85524126286845
3791.403,1.4349659220514068,271.56328421082026
3792.2754,1.4324761734978624,267.5495574311238
3793.15,1.4297261256036433,262.4751507611757
3794.0225,1.4265754151986958,288.0711245048092
3794.8972,1.4231388211640645,299.85690794340746
3795.7703,1.4199019744986392,248.05121265746152
3796.6455,1.417413737070345,262.4741305764892
3797.519,1.4160261483961396,288.54317139988507
3798.3926,1.4156969697074409,303.44771032420783
3799.2686,1.416038655857575,294.5059515696336
3800.1426,1.4164687713908921,300.31253200042266
3801.0188,1.4165021772360549,250.9141190773902
3801.8933,1.4160303286246572,253.2334570760123
3802.77,1.4153605363086461,272.75669351927263
3803.6448,1.4149222666766819,266.25150548074816
3804.522,1.4148154169463696,263.1507943483049
3805.3972,1.414573148556195,255.880894569431
3806.2727,1.4133614003342176,275.00779141894355
3807.1504,1.410590399124472,250.07005097283502
3808.0261,1.4065870767632087,266.2025414402607
3808.9043,1.4026382319479593,295.31958051230055
3809.7805,1.4003481474272004,249.49983128304947
3810.659,1.400504345949046,305.14219456390805
3811.5356,1.4025264614409318,287.45368018803794
3812.4126,1.4048505779667304,308.6650741419396
3813.2917,1.4059550921543955,280.944018541869
3814.169,1.4051581320910542,294.31851484843503
3815.0483,1.4026929244668076,271.6050405640605
3815.926,1.3992667720723635,276.3958428479131
3816.806,1.3955979714957643,302.5414508559687
3817.684,1.392293171587419,264.1722104449905
3818.5623,1.3897094361536195,327.89746234345836
3819.4429,1.38786680900912,297.60216104725754
3820.3215,1.3864290719338606,282.73912216321713
3821.2024,1.384833331236914,321.4136556496598
3822.0815,1.3825713996028928,280.23503606934213
3822.963,1.3793280150692235,315.46689774652106
3823.8423,1.3751025088527913,290.9736029009044
3824.722,1.370181371948835,321.5751583597224
3825.604,1.3650561208173353,305.0962048349177
3826.4841,1.3601747210519,298.3122009474022
3827.3665,1.3555076319234252,295.0192536524605
3828.2468,1.3505684780021696,318.9010705943815
3829.1296,1.3446593726610443,320.47577904503777
3830.0105,1.3374668269570897,322.94600734428275
3830.8916,1.3291980756471806,316.3654463156674
3831.7751,1.3204739123274336,352.5341006804724
3832.6565,1.3121172741853397,316.94659712130823
3833.5403,1.304801884555819,286.3097384299982
3834.4224,1.2991123921227827,344.2504522002399
3835.3064,1.295273637774672,375.38034292401755
3836.1887,1.2931526224244574,334.85502123224967
3837.0713,1.2923713867310536,356.8595532739811
3837.956,1.2927906413001355,334.4610309622812
3838.839,1.2947807028550715,312.35924100619246
3839.7244,1.2989748124547587,324.4664888206662
3840.6077,1.3056265571753052,317.1695900560614
3841.4932,1.3143594917345918,321.0616043927663
3842.377,1.3241983347227155,310.28887972094316
3843.261,1.3340031516889799,338.82551861114746
3844.1472,1.3426537624636246,299.4558277654465
3845.0315,1.3493076539452877,259.40971220132843
3845.9182,1.3539205144163993,343.9371767174364
3846.803,1.3571552701800957,335.5619644257618
3847.69,1.3599399819359244,290.8119076108735
3848.5752,1.3627467890287905,296.3945186448634
3849.4604,1.3655196283692428,346.73204360191005
3850.3481,1.368070886639405,279.9366514509841
3851.234,1.3704393252757143,313.9212277461651
3852.122,1.372865571079145,332.3086699496157
3853.0083,1.37536240522748,269.4462960407018
3853.8967,1.377517730141819,357.95810255753815
3854.7832,1.3786390119614444,300.24605331864717
3855.6702,1.378301301731902,302.31302121120126
3856.559,1.3767387583331294,323.4955036352857
3857.4463,1.3747925410919108,276.4364711463354
3858.336,1.373306342072533,339.15040904819864
3859.2234,1.372546619673032,280.8444074955123
3860.1135,1.3721130975658347,302.79148392586956
3861.0015,1.371477850264094,309.95374493714087
3861.8896,1.3704848733682133,333.65052735217273
3862.7803,1.3693212078842683,304.15661445294137
3863.6687,1.368094356015723,333.81336367157184
3864.5598,1.3665259615731602,315.34576134005744
3865.4487,1.3641343642845443,259.66001334510395
3866.34,1.3605630526096446,272.37603842705414
3867.2297,1.3558477715181991,280.01169090407575
3868.1213,1.3502824345696267,280.5618353678839
3869.0112,1.3442512603214292,313.01510507601955
3869.9014,1.337908720586925,322.3117811739448
3870.7937,1.331098918293722,267.81774383973703
3871.684,1.3234984945034731,310.71177295555924
3872.577,1.3147618540207637,340.09435136617935
3873.4678,1.3049540295722621,330.3442341572085
3874.361,1.2944897417496997,311.24611732529337
3875.2524,1.2841478415815717,324.2390175026448
3876.1438,1.2745025091584934,354.95735033188134
3877.0376,1.2656342947279255,326.03417492644894
3877.9297,1.2571114001280013,341.9855957259057
3878.8237,1.2480794095444236,351.1987909926725
3879.716,1.2378056316738166,383.71217606764066
3880.6108,1.2258734756815661,355.955658756661
3881.5037,1.2125390526701803,362.864455312996
3882.3965,1.1984095230290195,359.8026257097416
3883.2917,1.1841430547405203,407.64896314819015
3884.185,1.1702158176783093,412.33581533476615
3885.0808,1.1566122512205739,347.12661953736966
3885.9746,1.143402787560061,435.55822000850657
3886.8706,1.1308947378000247,437.24606148361346
3887.765,1.1200169929741872,394.2102464421695
3888.6592,1.1118666904103633,502.6157488392615
3889.556,1.1073810066088545,494.48372327611173
3890.4507,1.1070287029568784,431.9399399779183
3891.348,1.1105988878049988,441.83554520695463
3892.243,1.1172127259412623,405.0350120872351
3893.1406,1.1256412725115175,451.5530380504085
3894.0361,1.1347051398723709,410.6122235417086
3894.932,1.143923078654575,371.0336703772017
3895.83,1.1534434060038978,454.31379721120663
3896.7263,1.1634186633234862,437.13497149802527
3897.625,1.1736550143110203,426.50210849959313
3898.5215,1.1835635727417866,424.8126959030887
3899.4207,1.1930513624348953,436.56546375222416
3900.3176,1.2027194132338244,458.950357070166
3901.2148,1.2136077402700463,392.69699239937535
3902.1145,1.226188245548668,358.8918653203978
3903.0122,1.2397033213139743,365.01871329735843
3903.912,1.252706943428546,354.06512724612503
3904.8103,1.2637672262880233,339.53464390931583
3905.7107,1.2724892601222721,380.3416873224395
3906.6094,1.2794398583399413,345.54631078917964
3907.508,1.2857312941009826,301.06316602990415
3908.409,1.2922425897839707,369.24054544201294
3909.308,1.2992019140831046,300.66249657570194
3910.2097,1.3063753682923986,384.2562355660341
3911.1091,1.3132811122055907,321.76787794039177
3912.011,1.319638009188907,326.1240916701954
3912.9111,1.3253189525219649,319.44467320334047
3913.8113,1.3303642089162362,329.58104234913674
3914.7136,1.3348762972131376,298.26564574888056
3915.6143,1.3390702425098053,345.6056900688068
3916.517,1.3433757413694898,360.9191251875288
3917.4182,1.3481500376836837,331.0682431381573
3918.3215,1.35342228511884,286.35032401298713
3919.223,1.358676050678505,272.6995745441724
3920.1245,1.3631409226888427,262.482436053846
3921.0286,1.3661555289839176,268.28503176954024
3921.9307,1.3675241655946195,270.6687009939465
3922.835,1.367683774351214,285.34772490779375
3923.7373,1.3674218700344727,293.4106096349854
3924.642,1.3673738216589468,324.47620078666614
3925.5452,1.3676480934825366,276.6529079803656
3926.448,1.3679232962104058,293.61929192126576
3927.3535,1.367875793305559,321.9872661743403
3928.257,1.3674524682577276,270.7911807888639
3929.1628,1.3667235546362755,336.9721880370062
3930.0667,1.3655589843589417,321.727486249556
3930.9731,1.3635384226801006,307.44747216817467
3931.8774,1.3603128362434387,297.8794867742497
