wavl,flux,ivar
3566.9744,2.1179436440954382,7.004674305623357
3567.795,2.1194120353798684,6.317826702381865
3568.6177,2.120362220587806,5.916117574875829
3569.4385,2.1206812888006037,7.99440380637533
3570.2617,2.1195236208061874,6.7490258595142
3571.083,2.1158736959170006,6.399766596237455
3571.9065,2.109637242719969,6.589110899401336
3572.7283,2.102184007419684,6.067882398466849
3573.55,2.095585667611785,8.08296563244626
3574.374,2.0915656508912184,7.279788607893716
3575.1963,2.090989065295578,8.112399760871577
3576.0208,2.093973741206876,6.6674392289962565
3576.8435,2.1002011849574904,7.261183476776549
3577.6682,2.1090143839085758,6.752450253089943
3578.4915,2.11920895515716,8.124765687557755
3579.3145,2.1291056764347265,7.593256401790734
3580.14,2.1367514298960484,5.215819879421909
3580.9636,2.1404854108675284,6.344538945205528
3581.7893,2.1398076843743947,7.7589037492713295
3582.6133,2.1354367011361,6.4213124251597336
3583.4395,2.128583843792626,5.410080234496744
3584.264,2.120222245752808,8.200908560849323
3585.0884,2.1109261797212184,6.990541824718075
3585.915,2.1013752101053496,8.77479404569033
3586.74,2.092606515177996,7.96650394567024
3587.5671,2.0854518347444935,7.405240833987178
3588.3923,2.0803140421841837,7.182850986860848
3589.22,2.0771499761352747,5.932706088074348
3590.0457,2.0758162885931473,7.715521190432616
3590.8716,2.0758141600491036,6.541028290135678
3591.6995,2.0759663338853764,7.641544806731498
3592.526,2.074578851018355,8.535611488455496
3593.3542,2.0702997920200805,8.167258615792248
3594.181,2.06305089743644,6.439499658155155
3595.0098,2.054111815239267,7.4111567986326286
3595.8367,2.0454830880785106,6.718990118882609
3596.6638,2.0385661455418083,8.02403451543259
3597.4934,2.0335571306257285,7.946036590767482
3598.3208,2.02976293679436,9.385151138294027
3599.1506,2.0263903283067166,8.837413666987816
3599.9788,2.0232757048670402,7.8867113613500255
3600.8088,2.0208474798674234,7.438063968089282
3601.6372,2.0198275865135633,7.89759017952364
3602.4678,2.020715239216439,7.032886826921156
3603.2964,2.0233249537637024,6.498775173243437
3604.1252,2.0266095280167664,4.605460497875448
3604.9565,2.0290141971974873,6.830146511397694
3605.786,2.0291443192372274,7.419524311050469
3606.6172,2.0263332274419263,7.269182048167785
3607.447,2.0208266943247106,8.703233868265215
3608.2788,2.013715174091185,7.215392853472058
3609.109,2.0067592861777506,5.768195856671801
3609.9392,2.0016820411022174,7.127682835513971
3610.7717,1.9994956749049708,7.4711055511648325
3611.6023,2.000106727076551,7.178137651500575
3612.435,2.002425551615319,6.682247540855672
3613.266,2.004840149481753,8.580478252372409
3614.0994,2.0058916947883407,8.556229735240516
3614.9307,2.0049101409606935,9.766748106507952
3615.7625,2.002301539352652,7.086540332642242
3616.5962,1.9990751779300318,7.162120254767259
3617.4282,1.9960579503920597,6.531359792227425
3618.2625,1.9934105648901195,7.783924149261509
3619.0947,1.9909281172380213,6.924801799966421
3619.9292,1.9884672051626227,9.37661107563795
3620.762,1.9861056270311268,9.23214725459172
3621.595,1.983742644324043,7.837047536236434
3622.4302,1.9807947439793963,7.2302127604799455
3623.2634,1.9765027888364515,8.092918639985356
3624.0989,1.9706917976908411,7.057582926822129
3624.9326,1.9644229218755358,8.472533778829494
3625.7686,1.959483627444088,8.871729211895023
3626.6028,1.9572986001898245,9.347950355333083
3627.437,1.9579103662818147,8.416573707277829
3628.2734,1.9601094816460332,7.45080607120341
3629.1082,1.962184591574019,7.667926434610853
3629.945,1.9626595131683395,9.231505272705443
3630.78,1.960582868658758,7.091160047021743
3631.6174,1.9556841741445419,8.409548491862008
3632.453,1.9485180816522456,7.612546613954015
3633.2883,1.9401555447860663,10.117214994994587
3634.1262,1.9315879958363087,6.629651295633389
3634.9622,1.9233198823780475,9.791870422309168
3635.8005,1.9153230681340057,8.851066022348755
3636.637,1.9078064804258688,7.123981484039713
3637.4756,1.901428942514464,7.680280328573872
3638.3123,1.897054063831164,9.892549370847524
3639.1492,1.894775954538982,8.103971222789095
3639.9885,1.8935635520632825,8.57792445404569
3640.826,1.8917867220025242,10.01683825889417
3641.6653,1.8882746963260288,8.023493339893097
3642.5032,1.8831057433090486,7.354783458223011
3643.343,1.8774630829441417,7.952199611551533
3644.1812,1.872934850559787,9.065912497687156
3645.0195,1.8705120706934226,7.57462297164359
3645.86,1.8701129343964802,8.785489439497137
3646.699,1.8706574928230404,8.060559162667333
3647.5398,1.870641978071893,8.194016077858649
3648.379,1.8689092038594537,8.02877399511918
3649.2202,1.8652657490352942,8.419204232329268
3650.0596,1.8606826590337646,6.904733532498694
3650.8994,1.8567146545294355,8.928114752365275
3651.7412,1.8545323458559055,7.661167195838729
3652.5813,1.8541315408655208,7.776646859511921
3653.4236,1.854397959753001,7.628912694428195
3654.2642,1.8540527206967163,6.8069157660124
3655.1067,1.8525795128170646,8.341632547942847
3655.9475,1.8503712065357865,7.609028449447878
3656.7886,1.848096952647166,8.465817617739807
3657.6318,1.8460645951553523,8.588319059888072
3658.4734,1.8440582187616663,11.964097572731808
3659.317,1.8415405049098097,10.411406758022439
3660.1587,1.838086135394309,8.49819738074436
3661.003,1.833655384417956,10.785221900068384
3661.845,1.8287004289454982,9.190227772995925
3662.6875,1.823800598135823,8.358022070937793
3663.532,1.819413348401043,9.100441664581524
3664.3748,1.815856381175564,9.309391053076238
3665.2197,1.8133032367076882,8.492630819281391
3666.063,1.8117392471186062,7.91949691477469
3666.9084,1.810833753371646,9.628872202373445
3667.752,1.810253069678141,10.225656134906405
3668.5977,1.810064314277026,10.47258315116486
3669.4417,1.81069330362779,9.013749783234877
3670.286,1.8122801074495154,9.911345933258417
3671.132,1.8141628706098223,9.2681601137539
3671.9768,1.8151443509353258,9.938565887336827
3672.8235,1.8144256468412696,8.794669656658556
3673.6685,1.8122582565500924,8.331826128656374
3674.5156,1.8097006451569193,10.355535466082522
3675.3608,1.807741942502565,8.508035679044298
3676.2063,1.80645907064888,10.754991591212281
3677.0542,1.8049813500655234,8.429594427575873
3677.9,1.8022277488403349,8.561748038993871
3678.748,1.797838406633624,10.811500780276527
3679.5945,1.7926753501364405,8.744990538867528
3680.4429,1.7882669395135775,7.161422829789287
3681.2896,1.7858170971702299,8.697299764090122
3682.1365,1.785306022826062,9.598178245190892
3682.9856,1.7855394927687676,9.461572629262603
3683.8328,1.7848924603754044,8.1961217186213
3684.6824,1.7822294742969025,9.582050813758256
3685.53,1.7774330207606368,8.20569887795968
3686.38,1.7712724203190644,7.986464701843408
3687.2278,1.7650594653763747,10.26705513458174
3688.0762,1.7600437398202202,8.42848503488232
3688.9265,1.7569992284118388,11.113832825649192
3689.7751,1.7558810863338354,8.443167937631644
3690.626,1.7558887348058463,9.706968703837166
3691.475,1.756190112139771,8.43494604485756
3692.3264,1.756688613717079,8.628144584572109
3693.1758,1.7579753475195292,9.669908487345289
3694.0254,1.7603467971856452,7.9623831393205595
3694.8772,1.7628918863167296,9.961054501878316
3695.7273,1.7636736015068293,8.692852114467348
3696.5793,1.7609824115879569,9.023844187113564
3697.43,1.7545218857201224,9.816711743232649
3698.2825,1.7456210162076744,9.39275933745636
3699.1333,1.7365497041428652,9.724519248999519
3699.9841,1.729141149331654,16.857156740788074
3700.8374,1.723974225733625,12.51908779015148
3701.6887,1.7204926635495867,7.738640028352904
3702.5425,1.7178038758318173,8.87583075039799
3703.3943,1.7156368764655445,10.236408629618092
3704.2483,1.7144468812823306,9.150247636921637
3705.1003,1.714884983930097,8.809743954502961
3705.9526,1.716996733299127,9.841791864144405
3706.8074,1.7198201783543878,8.884328741773482
3707.66,1.7215490996288654,9.941891712642628
3708.515,1.7203166960533183,8.767466608303197
3709.3682,1.7150539377485432,8.639862268900252
3710.2234,1.7059735804498726,8.979294749093214
3711.0771,1.6945691404327807,10.702961574500478
3711.9307,1.6830429641817732,11.13374136593119
3712.7866,1.6737429536744828,9.725466660422951
3713.6409,1.6685274815910276,9.194122987275248
3714.4973,1.667793811684971,11.142101096667403
3715.3518,1.6702628086449245,10.08627073447673
3716.2085,1.6737548650396794,10.938898355764472
3717.0635,1.6766319277725215,12.940140054132279
3717.9185,1.6788068098017017,11.937878427589775
3718.776,1.681654384987183,10.078759404291535
3719.6313,1.6873316933837461,8.01706063812736
3720.489,1.697888571555754,9.906253377206006
3721.345,1.713631111191149,11.331197673072975
3722.2031,1.731689935076997,11.19167066758491
3723.0593,1.7458351363286673,10.284068939565824
3723.9158,1.7497559836012402,9.439121935584511
3724.7747,1.7409402127013913,11.432202677528625
3725.6316,1.722496492169813,9.854382278827504
3726.4905,1.7007074789023324,9.481774088753129
3727.348,1.681373163006841,9.931348218356803
3728.2073,1.6671013358232756,12.244676277225462
3729.065,1.6576862127316387,11.352631877362256
3729.9229,1.6514032496472022,9.137566138045571
3730.783,1.6466671773101194,11.473929581376227
3731.6414,1.6427877911920075,8.997265046795398
3732.5017,1.6397507949001289,11.20497537540151
3733.3604,1.6376350138510847,11.792530904495091
3734.2214,1.636076268527803,11.449998544002968
3735.0803,1.634420623941336,9.20945512195796
3735.9417,1.6322224540441497,10.221215983390703
3736.8013,1.6296598106433835,10.795082718327594
3737.661,1.6273303859450345,13.390656606180148
3738.5227,1.6257733819737186,11.137269033671945
3739.3828,1.6251837263247282,11.730302403139103
3740.245,1.625478516121446,9.149519272564834
3741.1055,1.626502112951423,10.677700581555602
3741.9683,1.6280506585481882,10.18449050957487
3742.829,1.6297619387877331,10.808715940197773
3743.69,1.6311584002268202,11.831082080115053
3744.5532,1.6317986262038424,10.209389689822313
3745.4148,1.6314288068202343,11.145751794146031
3746.2786,1.6300256166946154,12.809015819323784
3747.1404,1.6277807459456715,11.56701796360944
3748.0044,1.6250800897818374,9.890603868033589
3748.8667,1.6225046328536337,9.985028449474749
3749.729,1.6205797636044776,12.827525306040197
3750.5938,1.6194882869215261,11.396726280436589
3751.4565,1.6189797599258142,10.044796383222494
3752.3215,1.6186495966881915,11.226889181100178
3753.1848,1.6183716372462826,9.434049460850956
3754.0503,1.6183412287108978,11.160920360665042
3754.9138,1.6186401834547226,11.906310759408706
3755.7776,1.6187562851919128,10.31009222503128
3756.6438,1.6176019065372453,10.27845331544537
3757.508,1.6141212834608176,11.134530714934511
3758.3745,1.607972247591196,13.478084131031773
3759.239,1.599877165484909,13.456978224087443
3760.106,1.5911487826569015,12.864706195431314
3760.971,1.5830992766773593,11.155557123766641
3761.8362,1.5763001718499472,11.778343314881605
3762.7036,1.570640419789312,11.946543749118995
3763.5693,1.5658671402250552,11.367707005444084
3764.437,1.562071750160963,12.668669933038416
3765.3032,1.5598772450633664,11.878928550901538
3766.1714,1.559951592473128,10.810058081380722
3767.0378,1.5624598369283036,12.235883235534788
3767.9043,1.5667840899377887,12.23282213380815
3768.7732,1.5716890755052366,12.493083199857017
3769.6401,1.5756119981270835,11.758794266037686
3770.5095,1.577072177533718,9.852059876687239
3771.377,1.5749546762262072,10.179838677320845
3772.2466,1.5689937572010642,10.73793664533554
3773.1145,1.560169492849208,11.050358991852246
3773.9824,1.5504300163126319,10.467323458179042
3774.8528,1.5418567772106364,13.073538656144782
3775.721,1.5358534103603152,12.210507968033895
3776.5918,1.5327360348932608,13.249349712392716
3777.4604,1.532187999974139,12.930099369782532
3778.3315,1.5335124893857106,12.59922847474865
3779.201,1.5356964427735533,12.113504675149839
3780.0703,1.5374820182166702,11.547819314562226
3780.942,1.5377612969111638,12.557303623576416
3781.8118,1.5361429852323385,13.703739270477833
3782.6838,1.5332075785225205,12.274671904766997
3783.554,1.530222279846204,11.625355594141979
3784.4265,1.5284059615262406,12.699406400270194
3785.297,1.5283155979063567,13.158379515348898
3786.168,1.5295358409086222,11.628455545706306
3787.041,1.5309469400416507,12.778162001622608
3787.912,1.531312346722014,12.1358102242703
3788.7856,1.52988594034792,13.563393340711473
3789.6572,1.5266569587690912,12.947280550453991
3790.531,1.522204903392558,10.69250607605326
3791.403,1.5174433585958313,12.67233092541476
3792.2754,1.5131657766114628,12.222571784772493
3793.15,1.5097122832574312,13.959270029861552
3794.0225,1.506875220735923,12.249069174147383
3794.8972,1.5040990569988233,14.230690367483662
3795.7703,1.500953032904187,13.49062281220525
3796.6455,1.4973373389256592,13.75602984965166
3797.519,1.4935684233172735,12.97481507953561
3798.3926,1.490210484282133,14.433498403001806
3799.2686,1.4878738564757532,11.384525781854974
3800.1426,1.4869099314302117,15.44466915310622
3801.0188,1.4871376862661476,14.186259143436454
3801.8933,1.487954980157952,13.669273875115326
3802.77,1.4887375419579278,11.47287496974935
3803.6448,1.4892124864220395,14.516735670211768
3804.522,1.489499685224434,14.723171280881807
3805.3972,1.4897802199700387,14.37577043510669
3806.2727,1.4899716383125514,13.943391693591185
3807.1504,1.4897588144704508,12.500020918771058
3808.0261,1.489038446928863,16.655416639743077
3808.9043,1.4883394135709207,11.580264582651164
3809.7805,1.4886872218790055,11.863574189373523
3810.659,1.4908155827339427,15.680398994196873
3811.5356,1.4943888474798581,15.25111338539529
3812.4126,1.498089242435703,13.52225672570399
3813.2917,1.5005160335586143,12.045706696625583
3814.169,1.501088228081242,14.162775112648823
3815.0483,1.5002387969978264,13.107017411329785
3815.926,1.4989049224758553,13.704335976051786
3816.806,1.4979553695468992,11.89811286024972
3817.684,1.4978582829260323,13.767318063250466
3818.5623,1.4984896169604693,12.810317055845491
3819.4429,1.4991464890049415,11.987435717211614
3820.3215,1.4987982844385503,11.914910326389082
3821.2024,1.4965044489418746,12.33486829362954
3822.0815,1.4917523262990278,11.571577435001547
3822.963,1.484560799901203,12.45164156471358
3823.8423,1.4756136127683444,12.798289645878532
3824.722,1.4660482467658553,11.309493417908483
3825.604,1.4570975584102956,15.20779131992482
3826.4841,1.4495575491491222,12.807439629135454
3827.3665,1.4432757662501314,12.732450549444183
3828.2468,1.437528471690645,13.058117515559648
3829.1296,1.4315075824675128,15.185376884681771
3830.0105,1.42488009229041,15.752661490821941
3830.8916,1.4176533894692889,15.336817460437253
3831.7751,1.4099297566257858,15.065537190663548
3832.6565,1.4017968002646342,15.551705529162517
3833.5403,1.3932510286410595,15.144321541440824
3834.4224,1.3845671899418437,15.565337158815899
3835.3064,1.3762909067853464,16.225740449638977
3836.1887,1.369320119056165,15.219880054790572
3837.0713,1.3644858495952374,16.067152137518036
3837.956,1.3622616770041072,18.78162020459461
3838.839,1.3626069108253174,12.2326154036753
3839.7244,1.3651543185377384,15.235699910956425
3840.6077,1.369630473092625,16.690603708465034
3841.4932,1.376159346429293,17.547847487721523
3842.377,1.3849632410340424,15.97052770267264
3843.261,1.3958751134678211,15.591063778885694
3844.1472,1.4079023795357926,14.445616392318152
3845.0315,1.4193512020889858,11.104145199523806
3845.9182,1.4288013632145518,16.612608628575902
3846.803,1.4356474378499564,14.68029282390225
3847.69,1.440476315934062,16.887491453410988
3848.5752,1.4445109531420355,14.819894185373505
3849.4604,1.4489600466497676,13.216251921246279
3850.3481,1.4543825889740558,13.123909162185358
3851.234,1.4605279216965943,12.79578109111494
3852.122,1.4668319629762927,12.941792355866404
3853.0083,1.472751422059591,13.845579300487175
3853.8967,1.4779223857145003,13.856434908718512
3854.7832,1.4818237232449876,13.374908706762575
3855.6702,1.4839243872460863,14.438652639822887
3856.559,1.4841071261886185,13.969789889547206
3857.4463,1.4830201714994478,12.592061422255773
3858.336,1.481735069837401,14.35141480918314
3859.2234,1.4810136693828524,13.684293765287254
3860.1135,1.4808807004129305,12.949076771980977
3861.0015,1.4808796335810583,14.908906844890314
3861.8896,1.48053907675963,12.6472644926729
3862.7803,1.4795158072990768,13.118604402924833
3863.6687,1.477400579500912,14.058029511329087
3864.5598,1.473595654213661,12.366097468503304
3865.4487,1.467680806842043,9.530797621377307
3866.34,1.4597669866932907,16.341133486133334
3867.2297,1.4506776944096218,14.362949937529924
3868.1213,1.4414205752747262,12.521289726261598
3869.0112,1.4328851590712925,14.867252075033242
3869.9014,1.4255430696077693,13.423621640987504
3870.7937,1.419531182784444,12.909114669616557
3871.684,1.4146480050595067,15.246705273366192
3872.577,1.4102145873093814,15.963811065162023
3873.4678,1.4053306810321409,13.764288485401584
3874.361,1.399167117466117,13.006641170751811
3875.2524,1.3914617294179359,14.165120606849891
3876.1438,1.3825049644113898,14.581755162512298
3877.0376,1.3728323237084339,16.391092627014615
3877.9297,1.362816013559891,14.87106364582236
3878.8237,1.3523020179480805,14.809562711244086
3879.716,1.3410308410712612,17.108925898574444
3880.6108,1.3287883482161877,14.30154664164219
3881.5037,1.3155992930212816,18.5267541076719
3882.3965,1.3012703384593616,20.27476033386729
3883.2917,1.2854371801001039,17.554125887797827
3884.185,1.268091950878726,18.90102786787392
3885.0808,1.2496624822856859,17.428804686275747
3885.9746,1.2310963622993527,15.692657665289145
3886.8706,1.2125015743992913,20.143420903643026
3887.765,1.1922582107705806,19.750596119075784
3888.6592,1.1663813266061722,21.567806707560074
3889.556,1.1303333532918602,21.18407039645269
3890.4507,1.083674538340166,20.6742582683693
3891.348,1.0339542370938735,19.95863468826672
3892.243,0.9973333765380834,20.684790116059567
3893.1406,0.9897836501572431,8.689634845894563
3894.0361,1.0166614608144884,19.31492299407228
3894.932,1.068245929684199,18.26622741464302
3895.83,1.1269273836976166,18.421082774733893
3896.7263,1.1777590969786813,19.932089155394078
3897.625,1.215366824150325,17.061557932809063
3898.5215,1.2412110203977549,20.807053561474078
3899.4207,1.2596642269150713,20.813839875321612
3900.3176,1.2744668187952866,23.968019287021153
3901.2148,1.2884206535009826,15.666024147949832
3902.1145,1.3031275404081428,15.768436164779224
3903.0122,1.3187091654487528,14.584910803267517
3903.912,1.3342132214100406,15.58133305631466
3904.8103,1.3481524897809298,14.639663196540303
3905.7107,1.3597598198812615,15.779644016655489
3906.6094,1.369196983121696,16.37145546328632
3907.508,1.3774194193866645,15.390954616758467
3908.409,1.385436296404328,14.570305797787055
3909.308,1.393838707429178,13.226175054353023
3910.2097,1.4029488801570775,16.062685584302308
3911.1091,1.4128827454619548,16.190609783704506
3912.011,1.4237905851003125,13.345361737541825
3912.9111,1.43544212802343,13.495649805029796
3913.8113,1.4471847595217744,14.287087953292545
3914.7136,1.4580205012307377,13.794672998653345
3915.6143,1.4670442207503045,13.48830309588215
3916.517,1.4741076769700685,13.743030216374407
3917.4182,1.4797257087568196,14.695996551272897
3918.3215,1.4847842017728856,12.014955950339177
3919.223,1.4898851603887375,12.973171799068913
3920.1245,1.4951221535006167,12.364101382491876
3921.0286,1.500079582955464,14.118238240623546
3921.9307,1.5040663110727488,12.19793580553441
3922.835,1.506522063190173,13.278338789450041
3923.7373,1.5071970436701432,13.721415619047749
3924.642,1.5062925070615591,12.238221321670538
3925.5452,1.504386137171583,11.572769068982458
3926.448,1.5022206390404909,11.301219988579701
3927.3535,1.5003934233268545,12.763006914430164
3928.257,1.499107812873881,12.83872998797026
3929.1628,1.4980840054020441,13.353710161448523
3930.0667,1.4968334318542744,12.556236134964596
3930.9731,1.4950607493318666,12.33957126469112
3931.8774,1.4929614737563972,12.794083284996766
3932.782,1.4910009229724526,11.86815481168942
3933.6887,1.4894122327036339,12.219790044554783
3934.5938,1.487876627796101,10.530644761720934
