wavl,flux,ivar
3566.9744,0.6382749041376922,1634.492701824786
3567.795,0.6376493721764812,1352.2010897131104
3568.6177,0.6354628388103373,1389.7645438418617
3569.4385,0.6318996652062888,1662.474279503781
3570.2617,0.6274824529271478,1508.4628928756613
3571.083,0.6230269777003631,2175.630968113227
3571.9065,0.6193524926939674,2150.9329863048565
3572.7283,0.6170116333805286,1695.6752605953682
3573.55,0.615904644673908,1970.180276488083
3574.374,0.615414563906825,1416.949625725067
3575.1963,0.6149977880516333,1961.7851697774793
3576.0208,0.6147421296152561,1612.2928146781292
3576.8435,0.6152883795862202,1541.3035375804654
3577.6682,0.617130703252692,2511.6766233987914
3578.4915,0.6199875680285073,1587.5630069615297
3579.3145,0.6229054858643249,1801.2449466571923
3580.14,0.6249438145240743,2263.936321281213
3580.9636,0.6257660900023901,1806.2539559229244
3581.7893,0.625677252470474,1551.33142384262
3582.6133,0.6251189015081774,1416.0990614393888
3583.4395,0.6242498504267627,1825.4646678907006
3584.264,0.622955118169491,1742.788641493181
3585.0884,0.6211429403347137,2185.871969303424
3585.915,0.6190180560933896,1772.3353591380308
3586.74,0.6171139471590891,2130.570188241158
3587.5671,0.6160272323238568,2381.8541546443143
3588.3923,0.6161432120792758,1793.3319170119753
3589.22,0.6174200355248995,1781.7342217059268
3590.0457,0.6193906035394567,1298.8444973683254
3590.8716,0.6213857864494252,1903.295544284924
3591.6995,0.622801664658985,1500.0555598190952
3592.526,0.6232570956265593,1493.9601597568674
3593.3542,0.6225864418635134,2142.4196241995496
3594.181,0.6207328374965022,1775.7712484908377
3595.0098,0.617727900368776,2619.4077697054595
3595.8367,0.6138495420177172,2188.7373221794114
3596.6638,0.6096695237627111,1706.7367544109907
3597.4934,0.605949441539107,1667.3246908342808
3598.3208,0.6033266664763122,1893.4772253474875
3599.1506,0.6019408903755108,1563.3861964902144
3599.9788,0.6015249475947937,1839.4136243172782
3600.8088,0.6017497937903569,1843.3954183232077
3601.6372,0.602588267150925,1841.9812134500348
3602.4678,0.6042533845458716,2145.4773009808678
3603.2964,0.606718729885685,2837.4700511458213
3604.1252,0.6093656525557694,1666.4339508813293
3604.9565,0.6111440172743422,1703.4594849098326
3605.786,0.61122985543616,1933.2193239934913
3606.6172,0.6096461414850215,1862.8381256969435
3607.447,0.6072391496776568,1400.0132982840491
3608.2788,0.6050667065528814,1853.399190863366
3609.109,0.603802517139475,1921.5970997707298
3609.9392,0.603524891676138,1763.4633903461952
3610.7717,0.603994768408465,2162.102143718076
3611.6023,0.604955670457341,1501.3326503672595
3612.435,0.6062366901080488,2285.5740159942643
3613.266,0.6076564070010159,1699.3041208619622
3614.0994,0.6090084240801007,1867.4245290813933
3614.9307,0.6101135629495745,1463.1269649777403
3615.7625,0.6108851875134202,1845.3217757791447
3616.5962,0.61120077610176,1720.2791419914452
3617.4282,0.6107767558448384,1866.1227605540482
3618.2625,0.6092712756212045,1918.9373760485616
3619.0947,0.6066223879258056,1716.2423011023209
3619.9292,0.603247058679847,2042.4529079805209
3620.762,0.5999543294755707,1965.3734365834416
3621.595,0.5974772986456276,1915.6606611564537
3622.4302,0.596133291420659,2103.643237343115
3623.2634,0.595781802280514,1929.9089776511264
3624.0989,0.5960875491416346,1736.1899838864297
3624.9326,0.5968512691393173,1971.2610573166817
3625.7686,0.598060744865427,2196.5529162905464
3626.6028,0.5996396305100825,1601.6187103062748
3627.437,0.601246097278516,2042.4003648466683
3628.2734,0.6023423354917851,2030.9669950847635
3629.1082,0.6025099061692869,1530.9884901946148
3629.945,0.6017360053774675,1914.1830449850636
3630.78,0.6003784017874254,2089.738067800916
3631.6174,0.5988540281309157,3008.120817108561
3632.453,0.597408508687476,2167.9090660003185
3633.2883,0.5961660376902597,1861.260008858191
3634.1262,0.5954567256825631,2250.9120860973208
3634.9622,0.5959185594156744,1944.0279389404577
3635.8005,0.5980847537338186,1733.9428879895295
3636.637,0.6017865428075713,2006.0346302213914
3637.4756,0.6061055989761572,1780.5440876210043
3638.3123,0.6099136288229268,1831.270150456456
3639.1492,0.6126739417560431,1473.3112106333926
3639.9885,0.6145833730337077,1756.8364046711076
3640.826,0.6161874124092792,1971.8256845529204
3641.6653,0.618200989522874,1381.0434429830934
3642.5032,0.6222716776722974,1430.166318909949
3643.343,0.6329050935831458,1646.4412634854918
3644.1812,0.6587164551693795,2060.768118266647
3645.0195,0.7102549328854139,2068.901401378596
3645.86,0.7920204954740937,2301.3173549934468
3646.699,0.891193172442731,2091.7169731555537
3647.5398,0.9767923668964843,1929.6922840328955
3648.379,1.0126165353749634,33.8876740267674
3649.2202,0.9818482437359402,1449.6745458003618
3650.0596,0.8989494924247884,1910.0096123129952
3650.8994,0.7985975072116345,1860.1763301286696
3651.7412,0.7128315600124033,1994.8056406658345
3652.5813,0.6564344163000205,2004.0870115390314
3653.4236,0.6266968701233211,2094.124538527027
3654.2642,0.6141947871540084,1599.6808162230852
3655.1067,0.610386141035159,1462.1657555748052
3655.9475,0.610903423959558,2035.4304752184648
3656.7886,0.6147111955572546,1603.7472676637262
3657.6318,0.6220316663029374,2132.7532104376855
3658.4734,0.6320118137827407,1866.6020252356561
3659.317,0.6416976496097239,1624.6902810834658
3660.1587,0.6469379216438693,1233.6733432530077
3661.003,0.6452461021115206,1697.7677066853773
3661.845,0.6377189979992256,1861.4483163295642
3662.6875,0.6282512378976137,2050.389513513053
3663.532,0.6207677558114106,1832.059465204932
3664.3748,0.6170622710936231,1622.8940358172217
3665.2197,0.6165234558522363,1811.685278426689
3666.063,0.6174339343475954,1682.1693833256024
3666.9084,0.6181800502015538,1749.4422468162322
3667.752,0.6178203331339109,1875.8995901903877
3668.5977,0.616101976324065,2158.4603773031495
3669.4417,0.6132296123501753,1861.2995708624712
3670.286,0.6095704558512111,1739.6626754801757
3671.132,0.6055336737127565,1922.0541291257532
3671.9768,0.6016899703469707,1595.8463460468156
3672.8235,0.5987909240778908,1765.6963015752544
3673.6685,0.5975632192484821,2284.784691038122
3674.5156,0.5981453293146524,2059.271012145695
3675.3608,0.5998481795685388,2469.8742228644824
3676.2063,0.6015271614225395,1785.5576451515117
3677.0542,0.602286574197377,1731.4716081539566
3677.9,0.6019105195527426,1858.5291145470778
3678.748,0.6007593633017103,1906.2488687146922
3679.5945,0.5993617381807037,1906.0388340275235
3680.4429,0.5980765398435862,1876.4061996160829
3681.2896,0.5970345958963306,2258.6122144214164
3682.1365,0.596201847214957,1667.272218779342
3682.9856,0.5954936471581187,2175.4712626742416
3683.8328,0.5948221124225007,1706.4598778029947
3684.6824,0.5940728169374776,2095.053295609586
3685.53,0.5931347092853407,1784.0427415992908
3686.38,0.5919983437054018,1902.4577078402187
3687.2278,0.590913709911396,2338.0153078775847
3688.0762,0.5903238696136685,2667.5590844201392
3688.9265,0.5905689022245657,2127.6161029104023
3689.7751,0.5915628968224734,2129.048959064548
3690.626,0.5928259524644455,2166.39738961432
3691.475,0.5938340410355759,1459.1361823391994
3692.3264,0.5943849985009021,2279.0843890051237
3693.1758,0.5946268726675209,2046.0049926133195
3694.0254,0.5948457564193191,1783.806342036032
3694.8772,0.595200270230893,1973.2629097979054
3695.7273,0.5956079995810174,1972.8150590813111
3696.5793,0.5958208098457873,1594.5524748958633
3697.43,0.5955589100811888,1862.6204608850685
3698.2825,0.5945968963463271,1760.403697449017
3699.1333,0.592828322619741,1816.1618592258305
3699.9841,0.5903901058733295,1658.1495962902886
3700.8374,0.5878039124288965,1509.7113952512616
3701.6887,0.585895319947517,2447.1196956984663
3702.5425,0.5853011003780064,2309.2224738859677
3703.3943,0.5860242938791096,1922.014832293889
3704.2483,0.5873610115002246,1586.4342765936
3705.1003,0.5883357291024958,2145.8386430269675
3705.9526,0.5883149791958304,1968.137967941657
3706.8074,0.587313638835373,1966.200257991553
3707.66,0.5859021337948248,2161.3193615348628
3708.515,0.5847805007014022,1792.1858293527437
3709.3682,0.5844011513261113,2371.669337795615
3710.2234,0.5847997618097193,1829.8993322137053
3711.0771,0.5857040763246295,1762.1961960700517
3711.9307,0.5867055613782916,2163.932024381671
3712.7866,0.587376187340339,1753.805233807728
3713.6409,0.5873719758551005,2119.7386311883706
3714.4973,0.5865912839341957,2221.6706621626467
3715.3518,0.5852604631084233,1774.4963721501522
3716.2085,0.5838276004918985,1664.8881858644306
3717.0635,0.5827552902911394,2026.791536623235
3717.9185,0.5822972398760394,1923.116259867245
3718.776,0.5824581795686129,1811.4336221430183
3719.6313,0.583055340564349,2039.7706590119194
3720.489,0.5837933965388145,1918.2297424311657
3721.345,0.5842961925375914,2198.9655698148963
3722.2031,0.5842189148369525,2012.3967712006029
3723.0593,0.5834328454735851,1834.0869326552531
3723.9158,0.5821542311960625,1646.2388544527494
3724.7747,0.5808702752236572,2528.9575735458
3725.6316,0.5801268489859245,2409.604613442579
3726.4905,0.5802616192495867,1888.1308448425307
3727.348,0.581266075804973,2215.9779284160954
3728.2073,0.5828089860561112,2001.2059836987428
3729.065,0.584409780943418,1978.3980994874876
3729.9229,0.5856763263404077,2076.4043132227766
3730.783,0.586388130757383,1853.4733329345395
3731.6414,0.5864640940065421,1930.8251333870103
3732.5017,0.5859173310171945,2287.2307623678944
3733.3604,0.5848429909040299,1719.4718152610778
3734.2214,0.5834298159181536,2107.5359329029557
3735.0803,0.5819911724531326,2019.1888022261212
3735.9417,0.580887398276485,2399.6143526226274
3736.8013,0.5804031883531746,1926.4886693986386
3737.661,0.5805444818840481,1835.210832854759
3738.5227,0.5809975549835203,1755.3066351614289
3739.3828,0.5813024929599694,1752.9964299127012
3740.245,0.5811905137540121,2269.0601557308687
3741.1055,0.5807995983999501,1841.4322481856846
3741.9683,0.5805628722247932,2454.6166404091737
3742.829,0.5808418278750999,1899.2720285324333
3743.69,0.5816142860628493,2078.1259212833384
3744.5532,0.5824879816964337,1802.2955798793282
3745.4148,0.5829549854827746,1761.974590558857
3746.2786,0.5826736045948906,2256.0600443004096
3747.1404,0.5815526444624245,1655.1664142849186
3748.0044,0.5796538525601834,1950.2471109759167
3748.8667,0.5770668213203262,1917.8148092137953
3749.729,0.5738344703999301,2318.1056859993196
3750.5938,0.5700880189455675,2427.6026452652795
3751.4565,0.5663078848927463,2038.4100743015272
3752.3215,0.5632914121057381,2214.9307748542483
3753.1848,0.5618579259806955,2349.6397340047743
3754.0503,0.562245555592031,2175.130414418956
3754.9138,0.5638807282354281,1872.7767685618946
3755.7776,0.565723705662459,2088.0423720035424
3756.6438,0.5669590091778443,2053.8386881662723
3757.508,0.5674618074369463,2491.931258617881
3758.3745,0.5677467824155094,2292.9148356928504
3759.239,0.568466933472305,1909.7442595989805
3760.106,0.5699351082370321,1924.8239490417122
3760.971,0.5719296466153944,1991.656509520003
3761.8362,0.5738898727633479,1908.0071550465955
3762.7036,0.5752305586323616,1868.4521468292687
3763.5693,0.5755954772487967,2161.5832186714133
3764.437,0.5749702423003062,1871.2089054685432
3765.3032,0.5736064539153531,2109.2092626262665
3766.1714,0.5718317476572743,1979.1982160877
3767.0378,0.5698821038974704,1770.6432445044013
3767.9043,0.5678234719629541,2180.524972525048
3768.7732,0.5656832089473233,2304.53179546297
3769.6401,0.5636642412247957,1968.543723107893
3770.5095,0.5621837750405991,2305.642734919537
3771.377,0.5617419988355097,2061.7384420915555
3772.2466,0.5625542750029734,2112.686821212998
3773.1145,0.5642980428290756,1984.0716363964991
3773.9824,0.5662014792013478,1667.1156759058279
3774.8528,0.5674698964199162,1791.3477935813423
3775.721,0.5677395629290275,2266.894026726258
3776.5918,0.5672355584705145,1833.0509977840388
3777.4604,0.5664854470079854,2019.0935806776413
3778.3315,0.5658979443854946,1919.7271127623376
3779.201,0.565601647767943,2063.3696500837973
3780.0703,0.5656018215944434,2354.0759264314725
3780.942,0.5660119344247998,1839.24482686861
3781.8118,0.5670107154712152,2236.2412213159364
3782.6838,0.5685741037503941,1841.5836743466493
3783.554,0.5702685638753929,2451.0355001953058
3784.4265,0.571432050347479,1974.38784086203
3785.297,0.5715459755227411,1799.8637739504156
3786.168,0.5705666716975781,2239.152978813126
3787.041,0.5689039494663163,2008.5845675552853
3787.912,0.5671916534836926,2225.7177479970696
3788.7856,0.5659605662903338,2090.070568922078
3789.6572,0.5654531649284672,2507.7199704738423
3790.531,0.5655261542070665,1783.0338641865612
3791.403,0.5657523535328778,2165.9740468022624
3792.2754,0.5656292882767255,2185.146857498699
3793.15,0.5647694652504163,2245.520630288298
3794.0225,0.5629989681712575,1838.813900565881
3794.8972,0.560366555808668,2220.861038956533
3795.7703,0.5571966737963056,2275.690233044225
3796.6455,0.5540024141768733,2652.409791731458
3797.519,0.5513579846858113,2503.049321344771
3798.3926,0.5496119122692437,2192.8003951135966
3799.2686,0.5488100789808827,2247.976998579968
3800.1426,0.5488336854309894,2063.269541694556
3801.0188,0.5496441136568615,2270.7967844530117
3801.8933,0.5513754723920784,2185.8174630090634
3802.77,0.5541260546305986,2114.0682544641245
3803.6448,0.5575885204246708,2316.3919228398095
3804.522,0.5610485774569173,1892.794389834033
3805.3972,0.5636999978882831,1882.707253397492
3806.2727,0.5651810239900775,1677.2145638502086
3807.1504,0.5656781902721826,2054.387696273448
3808.0261,0.5656628121335722,2227.322803673424
3808.9043,0.5655233654276898,1907.9533960608633
3809.7805,0.5654101794594096,2186.1179487368354
3810.659,0.5653262925624762,2063.3102466256123
3811.5356,0.5652491011247109,2515.459094967965
3812.4126,0.5651469715937291,2032.636240828202
3813.2917,0.5649972340759399,1989.7782052136197
3814.169,0.5648887084227463,2382.5776375485066
3815.0483,0.5650561976102708,1744.5180337678862
3815.926,0.5656962205653766,1902.6261622055029
3816.806,0.5667206946831728,2149.5205361941466
3817.684,0.5677396455741434,1554.5344243096686
3818.5623,0.5683560065492924,2006.1671568677054
3819.4429,0.5684204866670703,2608.5489740483044
3820.3215,0.5680065519109054,2377.2381314345166
3821.2024,0.5671613961105918,1961.144009665089
3822.0815,0.5657500369915569,2040.1782603540462
3822.963,0.5635426793579182,2207.1814072380957
3823.8423,0.5604917746809037,1872.0184352813285
3824.722,0.5568290105481343,1952.169460260476
3825.604,0.5529558843881087,2144.289203026235
3826.4841,0.5492301431368004,2678.8473473028544
3827.3665,0.5457514268261462,2424.2341379769846
3828.2468,0.542460416436056,2114.6754145854748
3829.1296,0.5391574418988402,2342.9196992622024
3830.0105,0.5356282534686404,2471.498367950304
3830.8916,0.5316890594475132,2172.9380381955843
3831.7751,0.5273651460432573,2741.0803461546025
3832.6565,0.5229651084916249,2288.0997837277173
3833.5403,0.5187949912069493,2799.5017952049348
3834.4224,0.5149491655935652,2546.8250883973524
3835.3064,0.5111230808593415,2590.160642294362
3836.1887,0.5068922812303225,3078.0596214138177
3837.0713,0.5021275807340231,2546.656510694238
3837.956,0.49751267774187447,2524.62335998182
3838.839,0.49464692689816536,2903.5704871452685
3839.7244,0.49526304356034845,2769.2438780140023
3840.6077,0.50008247795057,2355.6786093770816
3841.4932,0.5082302658641844,2327.8382313228162
3842.377,0.5177669769881738,2219.732720435579
3843.261,0.5270286163133072,2613.564051436569
3844.1472,0.5352666916207826,2496.523961271277
3845.0315,0.5423607661647343,1885.4919498209404
3845.9182,0.548406579753456,2108.5526531838977
3846.803,0.5533773695037489,2737.8238526302353
3847.69,0.5573711118879483,2124.588325876038
3848.5752,0.5606111807989637,2386.1634947102793
3849.4604,0.56344862729885,2080.9906814356627
3850.3481,0.5662324811377736,2197.1288533277047
3851.234,0.5692271846179767,2050.3699063160675
3852.122,0.5726003655155661,2271.5402072237202
3853.0083,0.5763006147034639,1938.491454681805
3853.8967,0.5801296767766155,1722.9307334762757
3854.7832,0.583767554625863,2109.0915264567293
3855.6702,0.5869604899211819,1938.905458022641
3856.559,0.5895776175480958,2025.879295883564
3857.4463,0.5916146985116645,1902.4898093751149
3858.336,0.5931426871407927,2112.2521303483304
3859.2234,0.5941664491790861,1924.7110594100952
3860.1135,0.594644525817365,1632.7984451806049
3861.0015,0.5945388283797651,1949.2342412328944
3861.8896,0.5938557194789148,1892.2052995014933
3862.7803,0.5925929945536358,1749.864199839248
3863.6687,0.5907659737169374,1694.5395791240262
3864.5598,0.5884875199683977,1974.3658433847818
3865.4487,0.5860513312934132,2149.9008108635153
3866.34,0.5837354616065956,2376.6518472024013
3867.2297,0.5816409365256915,1587.2449637039288
3868.1213,0.5796202659989534,2090.338104661589
3869.0112,0.577470572153023,1875.7691339372811
3869.9014,0.5750464077510157,2134.9053274140365
3870.7937,0.5723073114384323,2174.361681946642
3871.684,0.5693372241524574,1750.0914199295016
3872.577,0.566263628929153,2251.991876326534
3873.4678,0.5631757477461498,1811.016384307797
3874.361,0.559887562315004,2028.9848173333687
3875.2524,0.5559904194629683,2343.2819423964797
3876.1438,0.5510397343881901,2008.5946687310877
3877.0376,0.5448882461805117,2446.3485020514836
3877.9297,0.5378856699594806,2617.2223074103276
3878.8237,0.5306111302530265,2916.695375230495
3879.716,0.5236242331121955,2281.16951294761
3880.6108,0.5170758799637085,2645.8861624192327
3881.5037,0.5108411620967843,2529.1027663727104
3882.3965,0.5046134894685667,2616.811259569515
3883.2917,0.49813025288143975,2971.3311845221647
3884.185,0.49130138211092095,2573.8832041953124
3885.0808,0.48414444645294075,2513.8513176624765
3885.9746,0.4769726244051308,3118.590844119474
3886.8706,0.47023260304432946,2802.0719620373807
3887.765,0.46449959007780883,3209.8644162734427
3888.6592,0.4602499591676118,3515.7060163969363
3889.556,0.45789267585123533,3593.2601588605235
3890.4507,0.4577666055937521,3138.5243940432406
3891.348,0.45999117393162187,3257.03617633896
3892.243,0.4642993448570217,3150.0028346914087
3893.1406,0.4700850327814465,3316.203570954061
3894.0361,0.4765759856964817,2769.6772172753454
3894.932,0.483273731656822,2544.1032611225914
3895.83,0.4900608994758891,2792.281930276232
3896.7263,0.4970111189678747,2926.9196185032206
3897.625,0.5042118685641997,2683.488995353349
3898.5215,0.5114148058409307,2815.00648231547
3899.4207,0.5182306842289844,2525.2650785291007
3900.3176,0.5242728293269497,2441.916245954934
3901.2148,0.5295949912036336,2379.160777982791
3902.1145,0.5346596817436519,2440.6968931591855
3903.0122,0.5400099220269926,2157.1743862108056
3903.912,0.5459822201486759,2435.9632262536998
3904.8103,0.552476973620273,2213.4839404296367
3905.7107,0.5592331733915178,1895.469552465451
3906.6094,0.5659665025399695,1974.4677750570459
3907.508,0.5725725951317142,1953.6998602239146
3908.409,0.579022817431248,1768.2828174752194
3909.308,0.5852066846340868,1908.640235487305
3910.2097,0.5909879448420545,2054.2799218370474
3911.1091,0.5961404044604004,1813.9192965940126
3912.011,0.6005520762015508,2234.412322846535
3912.9111,0.6041936634643664,1709.4896826625895
3913.8113,0.6072298253958475,1679.7752066212577
3914.7136,0.609978657797067,1765.9201459098203
3915.6143,0.6128154053242666,1743.8416989934242
3916.517,0.6160558869882,1866.6110782263218
3917.4182,0.6197552544554963,1698.126755724219
3918.3215,0.6237388660713127,1676.9932881957561
3919.223,0.6276527249506328,1436.2158958724128
3920.1245,0.6312106447026015,1654.0095299768418
3921.0286,0.634324474123123,1548.793210744371
3921.9307,0.6371160178335706,1769.006153923231
3922.835,0.6398068285456541,1756.6463150994518
3923.7373,0.6424218161928982,1497.3400082899102
3924.642,0.6447674525461972,2044.99567732557
3925.5452,0.6465869337323665,1559.1093252051026
3926.448,0.6478543837979075,1560.4697657721422
3927.3535,0.6487583435014463,1693.6160201910034
3928.257,0.6494464082353046,1090.1290044524794
3929.1628,0.6498384518550542,1266.2648051857502
3930.0667,0.6496632393682285,1532.137685109354
3930.9731,0.6486585799005752,1666.816819923596
