wavl,flux,ivar
3566.9744,0.8556474800322071,450.28997130632047
3567.795,0.8513519113065663,503.3133330757835
3568.6177,0.8449013672813753,709.8605888761539
3569.4385,0.8370484020749368,477.8898481824236
3570.2617,0.828379011504159,465.60266971857266
3571.083,0.8191526082928864,537.8846094285559
3571.9065,0.809493983952614,443.721539078239
3572.7283,0.8003383723790042,826.2187100603662
3573.55,0.7935454598940815,642.2736357439574
3574.374,0.7911789297123577,1125.696476470653
3575.1963,0.7941168779218123,482.0641713611204
3576.0208,0.8013119396746559,461.5926198786706
3576.8435,0.8103767426491585,517.4620874214143
3577.6682,0.8190399966403977,458.7542606315308
3578.4915,0.8259231234760483,438.25685693420985
3579.3145,0.8307406627834839,884.3734932730825
3580.14,0.8339472760126089,399.44710659685177
3580.9636,0.8364267958227712,571.7335867426154
3581.7893,0.8390349667663566,684.2607862662722
3582.6133,0.8417488040532412,802.9813670868108
3583.4395,0.843384453101782,323.75240154247155
3584.264,0.842423440700382,549.3816979018708
3585.0884,0.8385841457540069,575.3184971858517
3585.915,0.8335360111649344,530.5455579882846
3586.74,0.8300900250177504,932.7303853169639
3587.5671,0.8303126230566281,707.6153965997172
3588.3923,0.8342796610052783,491.7681809282127
3589.22,0.8401845853645935,793.2655234955038
3590.0457,0.8453937492770487,544.353086785145
3590.8716,0.8477738195857052,427.46497034759267
3591.6995,0.8463673873694809,325.402367950612
3592.526,0.8415682948270936,414.31836389285644
3593.3542,0.8346915927689779,515.0677903474649
3594.181,0.8273262413592294,584.8799558477613
3595.0098,0.8206077567255379,813.6197815706889
3595.8367,0.8151986455875906,626.5211928380459
3596.6638,0.8114949578708054,485.4240260881792
3597.4934,0.81005596546149,655.712526611346
3598.3208,0.8114938781678549,618.0166739880808
3599.1506,0.8159196744435276,637.3188435702298
3599.9788,0.8224975452926238,365.51293001891804
3600.8088,0.8297306107975677,427.50243260025377
3601.6372,0.8360711558271049,374.487559729324
3602.4678,0.8407101820012984,372.1615632440031
3603.2964,0.843746210147227,584.3894899586983
3604.1252,0.8460743147763538,897.405801359248
3604.9565,0.8487647970236772,262.40428525235933
3605.786,0.8523897139533042,316.2425565544695
3606.6172,0.8567604818881351,650.772436140071
3607.447,0.8610518149503124,510.32065639653257
3608.2788,0.8642477755667016,756.8534245244502
3609.109,0.8653034115721839,728.1938900242108
3609.9392,0.8633436384002332,608.2631801419726
3610.7717,0.8579987167878247,425.6543340431444
3611.6023,0.8499851436193232,711.3559648400726
3612.435,0.8410136659915959,528.8378798972681
3613.266,0.8331163791389242,601.449042782624
3614.0994,0.8274008148251141,507.76549617798713
3614.9307,0.8237301251726102,492.4486681380942
3615.7625,0.8211400278938572,615.482703499617
3616.5962,0.8188298385060999,456.9680572806205
3617.4282,0.8166120875205343,408.96240719531687
3618.2625,0.8145603511063574,577.5197726312965
3619.0947,0.8125300950075888,394.11464927453534
3619.9292,0.8100851122330276,475.4556968248784
3620.762,0.8069735523654107,399.21136511993467
3621.595,0.8034155060368744,352.6370787460521
3622.4302,0.8000505690372629,391.06156395755573
3623.2634,0.7977392958853772,758.4221993953547
3624.0989,0.7973168242015488,1018.6816337969318
3624.9326,0.7992711137395058,577.5988918220702
3625.7686,0.8031318550936718,1682.5638380265611
3626.6028,0.8071705611097335,577.2147644686135
3627.437,0.8092584468953712,530.1933650296475
3628.2734,0.8084132319437841,510.30487226632505
3629.1082,0.805733281495964,718.6976192950009
3629.945,0.8034916210137343,1269.418638945776
3630.78,0.8031296113777627,498.5682222908308
3631.6174,0.8040141062099073,764.3573813937504
3632.453,0.8042290114191747,467.7736172373104
3633.2883,0.8024632817942043,488.7472576850083
3634.1262,0.7990660986412599,576.2340352600328
3634.9622,0.7955477691871667,659.253119565496
3635.8005,0.7932351191610116,612.5843946269674
3636.637,0.7925672170591047,476.79845085744586
3637.4756,0.7931211127140121,593.3584899117809
3638.3123,0.7940555999080312,747.5283498274209
3639.1492,0.7945235671680003,582.0232480636671
3639.9885,0.7940085950614971,786.884839203288
3640.826,0.7925800559618008,566.2958617258272
3641.6653,0.790901738773159,272.85126550865994
3642.5032,0.7899107477556112,689.0601659731967
3643.343,0.7900643681060167,745.752200041144
3644.1812,0.7905573558628953,702.5449942345806
3645.0195,0.7892557742884094,370.2206373188739
3645.86,0.7838710639690452,515.5400342593041
3646.699,0.7738657007813817,309.19573488584416
3647.5398,0.7613216990036911,784.2199253817574
3648.379,0.7501678122413362,734.5713416744618
3649.2202,0.7437937138418149,818.7805905257873
3650.0596,0.7434572729701328,658.3138051013466
3650.8994,0.7479486943106821,658.1542084081218
3651.7412,0.7546304260602359,570.6779642218424
3652.5813,0.7604608310452515,664.8982654501146
3653.4236,0.7629433347426606,609.175525840255
3654.2642,0.7607888514498125,1844.5878082711788
3655.1067,0.7544867095593708,893.9323103906811
3655.9475,0.7462297552771505,1201.0929357042767
3656.7886,0.7389722621706769,683.1741283496792
3657.6318,0.7353213039402782,842.7442485274756
3658.4734,0.7366518300511208,855.5178993588029
3659.317,0.7426639272027022,968.3417040910742
3660.1587,0.7514854735256967,928.6731967693961
3661.003,0.7604420081823817,554.0594617559238
3661.845,0.7670007699413455,631.2546019347205
3662.6875,0.7698574034890284,1275.9553891148905
3663.532,0.7690207322476225,774.4097330682031
3664.3748,0.7654841668464725,535.5253911170533
3665.2197,0.7607798515453651,623.2992757900228
3666.063,0.7566988370377099,715.0381195874643
3666.9084,0.7546542723477809,946.9836275563227
3667.752,0.7549656621371431,787.6635003785111
3668.5977,0.7564784600821342,365.6040167534647
3669.4417,0.757227270857172,871.2256533668159
3670.286,0.7558542416315602,461.2704086571476
3671.132,0.7527084639407491,670.364932552598
3671.9768,0.7497813236155279,604.1281851547344
3672.8235,0.7493314252209832,961.5136242956638
3673.6685,0.7523285247166137,466.61045342281545
3674.5156,0.7577907718137976,589.9093910653157
3675.3608,0.7633852459248478,633.0832842637308
3676.2063,0.766912144349269,547.5067393787806
3677.0542,0.7674261428910268,627.3010611234171
3677.9,0.7655055849374182,988.2111700227443
3678.748,0.7625572432757994,891.1311195562657
3679.5945,0.7598497076946193,517.4483188837268
3680.4429,0.757939718981861,701.8603554197617
3681.2896,0.7568539791293624,721.9448647324814
3682.1365,0.7564823147108867,589.3580898420463
3682.9856,0.7568445224878221,649.3550232286926
3683.8328,0.7579779284691203,454.4520623084742
3684.6824,0.7596186944845112,817.8460233544201
3685.53,0.7609674747174285,557.4453273855307
3686.38,0.7609846694720453,819.741535636854
3687.2278,0.7590601585190875,493.6839743543351
3688.0762,0.7554846311185823,623.5111052992061
3688.9265,0.7511884378777477,654.0642580517866
3689.7751,0.7470764789665127,493.14673331249236
3690.626,0.7435066961357966,598.315871774684
3691.475,0.7404492273879829,1138.2752519242504
3692.3264,0.7377530110638125,1076.0928137945275
3693.1758,0.7354055171970449,1388.3836490995027
3694.0254,0.733510716090217,471.90102619928774
3694.8772,0.732323132802266,871.2459873595275
3695.7273,0.7322956576933906,616.0046996854226
3696.5793,0.7340084391122035,616.546060020969
3697.43,0.7378540680953511,798.2636554351482
3698.2825,0.7436438968830018,864.4827823642772
3699.1333,0.7504211539082715,664.6184988317259
3699.9841,0.7569201772147554,609.2554622783454
3700.8374,0.7620911081095212,463.82134065039486
3701.6887,0.7653094965358964,382.9303303625583
3702.5425,0.7663466531952265,890.9745878916281
3703.3943,0.7651034415020201,663.4084848832874
3704.2483,0.761562680568929,744.4321758500741
3705.1003,0.7559600216610143,630.8575907337271
3705.9526,0.7490743532405191,884.344013875575
3706.8074,0.7424256371792156,470.5992951986971
3707.66,0.7378117196470395,651.7400050365864
3708.515,0.7360072510296649,996.9522391202872
3709.3682,0.7360195485232994,428.1007167809888
3710.2234,0.7355547804780332,643.6135613824711
3711.0771,0.7326789016053379,599.359374637453
3711.9307,0.72721483348662,1137.367367168215
3712.7866,0.7207559681916687,1143.725966998766
3713.6409,0.7155494269857402,1100.2482203450436
3714.4973,0.7130677230597654,826.2745968325801
3715.3518,0.7135661153230038,1666.476545705621
3716.2085,0.7163581924739076,541.5267218533156
3717.0635,0.7204126324801717,545.7699692914131
3717.9185,0.7248042864439153,615.6719144722624
3718.776,0.7288259961150003,743.3719285883328
3719.6313,0.7318717112057508,958.1679779045195
3720.489,0.733458803754371,583.5602251185334
3721.345,0.7333110183984839,800.5187019755393
3722.2031,0.731558838807179,700.0712201966109
3723.0593,0.7286457975322274,799.3081695111368
3723.9158,0.7249453094355427,662.109850903172
3724.7747,0.7205518380463005,672.5779579811843
3725.6316,0.7155480600523239,572.0323980424615
3726.4905,0.7103076951469031,1003.9744812246098
3727.348,0.7056182822904352,961.7355675405596
3728.2073,0.7022288610758405,894.2215227604075
3729.065,0.7005533203812208,851.8479489508695
3729.9229,0.7005769549245233,903.6319740611463
3730.783,0.7020153770458454,659.4616667291851
3731.6414,0.7042308928105028,1036.5281870028518
3732.5017,0.7060921136158468,536.0530771471713
3733.3604,0.70620575209406,604.6326077549134
3734.2214,0.7038321375687342,828.6128347495091
3735.0803,0.6997487217308551,939.4847999183635
3735.9417,0.6960394796841523,967.1186684295262
3736.8013,0.6948846772945856,737.2537808114545
3737.661,0.6970939819957978,883.1763467976147
3738.5227,0.7016671615720522,1085.542465377658
3739.3828,0.7063923264835784,655.0711946117484
3740.245,0.7091563621719753,672.6812696815886
3741.1055,0.708873203549603,899.4713733406847
3741.9683,0.7057480668389855,1219.6086876686477
3742.829,0.7008699796549162,911.5872502636258
3743.69,0.6956087146077332,711.3929881106616
3744.5532,0.6912092357463772,764.7471283887559
3745.4148,0.6885250716027561,748.423196828155
3746.2786,0.6877164051518074,839.7591385227962
3747.1404,0.6883329336509856,954.6054657605102
3748.0044,0.6897329367773222,521.9234847154231
3748.8667,0.6916587514399944,1401.871046105361
3749.729,0.6944486555584245,968.3726668905256
3750.5938,0.698591469174487,1264.2109301260675
3751.4565,0.703935051451613,939.4930289084755
3752.3215,0.7094242762448502,656.0503137036853
3753.1848,0.7134927066647122,652.873067199895
3754.0503,0.7151379006750188,818.4079303762996
3754.9138,0.7145548781318364,562.3424675319351
3755.7776,0.7129998970489845,585.6581036322947
3756.6438,0.7118681418157388,677.2110835870842
3757.508,0.7117944189213303,1068.5174703059438
3758.3745,0.7124122449427238,926.0834842820708
3759.239,0.7129453844978406,695.3587268701056
3760.106,0.7130003547584302,785.4156893927867
3760.971,0.7127951680664786,738.3486538865204
3761.8362,0.7127152180179618,710.4727599419523
3762.7036,0.7127610291513204,713.6039144489138
3763.5693,0.7124771438443982,764.1876814428867
3764.437,0.7113437371459375,884.7195181251832
3765.3032,0.7091599104799216,688.106606288485
3766.1714,0.7060535514659538,761.1639795787555
3767.0378,0.7023539145415846,749.0649766195071
3767.9043,0.6984963522421697,959.5644503511542
3768.7732,0.6950631071158739,941.50322364629
3769.6401,0.6926495921538867,752.6502261752241
3770.5095,0.6914558320718263,709.580352587848
3771.377,0.691179344180598,725.2481106335197
3772.2466,0.69128276336459,616.6252783121016
3773.1145,0.6914818671271341,845.8942786743169
3773.9824,0.6919261734715071,1057.5014497454597
3774.8528,0.6929484057777207,733.2858515549767
3775.721,0.6946312555142129,1311.921857641679
3776.5918,0.6966029484839668,777.6035274367816
3777.4604,0.6981391294566955,867.5286836926421
3778.3315,0.6985943462453472,616.8698958062862
3779.201,0.6977709707486776,925.7903989772827
3780.0703,0.6961084095688229,668.5181593486766
3780.942,0.6945394924794465,1129.3257731532738
3781.8118,0.6940985894940886,782.1790088468234
3782.6838,0.6953627009999174,784.460207305176
3783.554,0.6981081418482095,863.5584966901332
3784.4265,0.7014840084883541,684.6273281957403
3785.297,0.7045233987096821,1175.597928784747
3786.168,0.7066851985832052,637.5454599897607
3787.041,0.7078640313247111,734.6779138153836
3787.912,0.7081198548371922,810.1510637607136
3788.7856,0.7074659097440824,637.249201744321
3789.6572,0.7058038040234901,734.2006807786678
3790.531,0.7029138257711359,639.7000361298783
3791.403,0.6985706465648935,779.4104623800207
3792.2754,0.6927572185394111,1333.8422711401975
3793.15,0.6859298702499496,564.3926942554774
3794.0225,0.6789929957906113,789.3045712349696
3794.8972,0.6726946395190223,810.1906408420036
3795.7703,0.6672569601213315,826.269788618769
3796.6455,0.662245553703287,1611.8095626449579
3797.519,0.6571856387822735,798.8347365505919
3798.3926,0.652135414599255,799.9262923323449
3799.2686,0.6479815645219009,718.2344654671231
3800.1426,0.6460741120521946,765.9157633780576
3801.0188,0.647307302732415,972.4625524705324
3801.8933,0.651434675245149,735.1184396709615
3802.77,0.6570536368741423,809.1380428023837
3803.6448,0.6622398446737515,989.9653554498484
3804.522,0.6656213381034932,507.777282363477
3805.3972,0.666995612404921,501.8343327109934
3806.2727,0.6674354260894619,1169.0842056022418
3807.1504,0.6685881731210745,594.2944516655531
3808.0261,0.6716989778953347,605.2247877993786
3808.9043,0.6770089053028124,651.048283475234
3809.7805,0.6838168870270633,612.7583832385023
3810.659,0.6912340501594066,572.9860610028469
3811.5356,0.698598211973496,847.4038574791665
3812.4126,0.7055676228950876,748.8269421190536
3813.2917,0.7117076094983222,873.7729745570455
3814.169,0.7162991594013951,554.9733950956894
3815.0483,0.7186984324334017,762.2201864145949
3815.926,0.7186351813655331,564.1792542103199
3816.806,0.7163757289445408,803.8869320212559
3817.684,0.7125835973803027,605.9727300508499
3818.5623,0.7081054428719428,706.4369902289909
3819.4429,0.7037584354584329,909.1930928114139
3820.3215,0.7000390430862297,931.5372167746444
3821.2024,0.6967325515233983,787.9226760973166
3822.0815,0.6930758567950335,615.0335573674665
3822.963,0.6883070405594398,742.6917522772599
3823.8423,0.6823919316198404,735.7442985912024
3824.722,0.6760007232850581,1094.5759766277333
3825.604,0.6699522280558029,923.4081099951098
3826.4841,0.6646333637148879,1060.8625359585062
3827.3665,0.6597471845012989,588.2336926778271
3828.2468,0.6547215312828312,971.44615424555
3829.1296,0.6489957118490833,849.214271429254
3830.0105,0.6423407364921879,1090.2970408127567
3830.8916,0.6347903092090432,1067.7981462267792
3831.7751,0.6265788290122158,907.3925151676069
3832.6565,0.6180580192058875,1191.7857761043347
3833.5403,0.6094452363493287,995.4113212901589
3834.4224,0.6011060964987045,902.4369958831376
3835.3064,0.5936995906783341,996.6356941765321
3836.1887,0.5884813971621188,1225.5889563184344
3837.0713,0.5868552009285114,1390.238753023168
3837.956,0.5897066870345824,924.3860796983148
3838.839,0.5967993939890973,758.4821804714489
3839.7244,0.6069551605448547,821.6504008591791
3840.6077,0.6185168400216567,1645.458157501951
3841.4932,0.6299961516801283,889.3028882985324
3842.377,0.64004934313738,704.6668487643326
3843.261,0.6478233032577385,773.0218279273145
3844.1472,0.6531785565471213,886.2596790018739
3845.0315,0.6568394659916659,752.0491370760506
3845.9182,0.6601507775587728,1532.285650233082
3846.803,0.6642974347976025,754.6673983812933
3847.69,0.6697699660613384,1396.3472133759465
3848.5752,0.6761103971183022,837.2666067385923
3849.4604,0.6823322023386221,892.4227423287639
3850.3481,0.6875587466729909,732.110747753278
3851.234,0.6915605122131915,1033.3938098787078
3852.122,0.6948722923095615,968.4089772446616
3853.0083,0.698095328943781,702.842880745276
3853.8967,0.7012431460798547,656.4933656514008
3854.7832,0.703585420180219,674.9178609826148
3855.6702,0.7043870438657216,603.6974405113571
3856.559,0.7036648559557345,543.0895103789071
3857.4463,0.7023237486065652,637.5503445609106
3858.336,0.7015057562886907,684.6443783783787
3859.2234,0.7018248208006517,938.918239684939
3860.1135,0.7030567134834472,908.7420930923809
3861.0015,0.7044067436173148,595.4105408028475
3861.8896,0.705002654838477,760.7712269438712
3862.7803,0.7041910964854369,940.7390756853985
3863.6687,0.7017158015839647,704.7780678846555
3864.5598,0.6978717382908727,614.6973350243223
3865.4487,0.6936159905078688,1000.5001405672672
3866.34,0.6901222319702491,777.362334660803
3867.2297,0.6881547163751284,642.8384507998157
3868.1213,0.6875690977265776,762.9576284202312
3869.0112,0.6875556179083371,760.1195346102132
3869.9014,0.6872158350807408,749.7115050696648
3870.7937,0.6860426431974183,894.7320697028666
3871.684,0.6840864945539002,716.6833708709873
3872.577,0.6818082875104936,799.722230801583
3873.4678,0.679764733428382,1031.2931221267363
3874.361,0.678117174528387,863.9142740100832
3875.2524,0.6764031479933227,734.1833863664447
3876.1438,0.6736849177852536,899.4329427438945
3877.0376,0.669093652240952,973.8800854802644
3877.9297,0.662396173884394,512.4022475958142
3878.8237,0.6540446456215975,1115.0661978372432
3879.716,0.6449589571253662,814.1120753653387
3880.6108,0.6358606268630802,697.1278915344141
3881.5037,0.6270185235391306,874.1493303348805
3882.3965,0.6180249031490218,807.5806986954385
3883.2917,0.608126134910119,1138.3522168249713
3884.185,0.5967119979017272,907.9810066326163
3885.0808,0.5833940127881866,1853.3298377929946
3885.9746,0.5682551143105006,1130.3355224900058
3886.8706,0.5515465742323798,1716.368375455566
3887.765,0.5340826417632462,896.1305933314634
3888.6592,0.5172683292482146,1830.899921010131
3889.556,0.5032739608999167,1427.5202834984098
3890.4507,0.4946383015612125,1608.0067685760189
3891.348,0.4930428199036239,1861.0899500179657
3892.243,0.49859619088837726,1278.0027458824213
3893.1406,0.5097650783483738,1251.0889125318754
3894.0361,0.524058073961764,1112.1452791682768
3894.932,0.539210204120328,1288.277075354801
3895.83,0.5536834927965772,1274.5253896763666
3896.7263,0.5665970437753814,1242.6397854902414
3897.625,0.5778280574665087,966.2820651045333
3898.5215,0.5877046438866109,957.9118487702763
3899.4207,0.5971477774349373,837.2867576008493
3900.3176,0.6070590498872873,1385.0433759670384
3901.2148,0.6179053665327283,1201.326961885768
3902.1145,0.6293112610541449,1080.872255983152
3903.0122,0.6402613791450361,692.9570528153226
3903.912,0.649995297105452,790.0196911185782
3904.8103,0.6583137954507172,992.2119912953484
3905.7107,0.6656943242848262,1340.727056223234
3906.6094,0.672785400219806,814.8594251996759
3907.508,0.6802579956026608,815.7525936214938
3908.409,0.6885789779521218,871.2354823990553
3909.308,0.6976534600523286,678.4539255632237
3910.2097,0.7067613951611232,632.2200784940949
3911.1091,0.7147137173064725,1072.9372407338074
3912.011,0.7207626094293931,630.8288926176202
3912.9111,0.7249480964871429,719.768337947695
3913.8113,0.7279829504482545,562.8623889329373
3914.7136,0.7304855162591314,773.1998535961985
3915.6143,0.7324691961451001,684.3222768076715
3916.517,0.7335370684558632,682.2464437753929
3917.4182,0.7334325585110854,648.8733052931434
3918.3215,0.7324214022522499,770.6826603011184
3919.223,0.7311142625450947,685.5116466331352
3920.1245,0.7300095523434437,612.0251758127315
3921.0286,0.7292589794261439,565.900960724872
3921.9307,0.7287931664393406,731.7935144439101
3922.835,0.7285914531781387,742.3517751684307
3923.7373,0.7288325716691644,688.4091800329265
3924.642,0.7297644601935146,633.8052118612778
3925.5452,0.7314268957804732,716.976701196631
3926.448,0.7335245060218738,577.548658337918
3927.3535,0.7355873282623439,596.5031438754659
3928.257,0.7372538528883358,601.6604974731246
3929.1628,0.7384460790261188,764.9187761738245
3930.0667,0.7391861737893161,753.5425535793482
3930.9731,0.7393945138622624,779.8986344455349
3931.8774,0.7388627721351441,708.3034261912151
3932.782,0.7374496157695162,834.3570836337917
3933.6887,0.7352038556638214,584.7874727067232
3934.5938,0.7323091922929099,646.2745566820923
3935.501,0.7289130861374365,776.8324691902624
