wavl,flux,ivar
3566.9744,2.337587807422864,135.75754445863322
3567.795,2.32497416283202,147.819292308671
3568.6177,2.315465311690516,129.8561818846274
3569.4385,2.311194494560587,123.63289452238465
3570.2617,2.3124561128920735,153.892343150041
3571.083,2.317871852799061,150.44845635818962
3571.9065,2.325183870893203,149.2305584862689
3572.7283,2.331975861253547,157.9648796442247
3573.55,2.3363539440787195,125.7850865020763
3574.374,2.3373293489654334,133.69043821532284
3575.1963,2.335041565206039,149.30213457665187
3576.0208,2.3304487029685794,129.88226600149278
3576.8435,2.324639484343198,137.2989260444127
3577.6682,2.3182512942305733,163.705789045805
3578.4915,2.311732411161518,115.16521118896463
3579.3145,2.3057939994040617,126.68398156533614
3580.14,2.3015242798054283,157.83041258072268
3580.9636,2.2996827020707906,137.6193657747471
3581.7893,2.299738920402052,136.73530228511288
3582.6133,2.2999311662284114,167.49611646887095
3583.4395,2.2983487525882156,127.44541113764893
3584.264,2.294219119868523,130.45951337125615
3585.0884,2.2883603550617226,147.8349532989359
3585.915,2.2826574577603753,107.30059670020242
3586.74,2.2790713093538066,158.1521462733637
3587.5671,2.278544264569506,161.72536727781193
3588.3923,2.280562391424743,129.91262178229474
3589.22,2.2834169330150993,143.56378383740423
3590.0457,2.2850436015762416,154.07559586412216
3590.8716,2.2839979427667747,136.9394413309865
3591.6995,2.279877613450892,149.51542274437182
3592.526,2.273207099700877,127.07605737052798
3593.3542,2.2648739215855156,148.82651419586963
3594.181,2.2559539914780644,131.6019143748849
3595.0098,2.247677380422671,141.33880247184518
3595.8367,2.2416042631514053,154.71934109599675
3596.6638,2.2389993057463973,135.17438439044852
3597.4934,2.2402312342567225,134.05338218604965
3598.3208,2.244405783053452,150.55992630143828
3599.1506,2.249668962268448,172.1775506252316
3599.9788,2.2537472970552006,141.9862943842648
3600.8088,2.2547953731219637,154.25717519741093
3601.6372,2.252138105337253,147.36360799589238
3602.4678,2.2467363096664656,150.58303349163083
3603.2964,2.240847249337659,140.62134650033443
3604.1252,2.2367121392173517,148.75201131474006
3604.9565,2.235265054944775,180.42988698561288
3605.786,2.2355579810765898,149.1107158765019
3606.6172,2.235307598866607,174.37976308234892
3607.447,2.2322395608686225,151.46496535885086
3608.2788,2.225377731961018,145.36904716970702
3609.109,2.2156974977852917,142.50362923804738
3609.9392,2.2055729013077108,148.3195894448319
3610.7717,2.197564872322023,186.24176470893389
3611.6023,2.193180718262637,140.75249747602763
3612.435,2.192181680278725,157.56624548783188
3613.266,2.193097574986574,170.2105141891724
3614.0994,2.1942181458080077,133.18380156893548
3614.9307,2.194369795881466,156.2145254895454
3615.7625,2.1925888221868965,168.54897884289088
3616.5962,2.1862690705965027,144.35945542921135
3617.4282,2.1684498619749153,162.70284464168378
3618.2625,2.1257162069997313,178.36424308636919
3619.0947,2.041417606009135,152.99694859591688
3619.9292,1.9058548556039057,156.92952330942035
3620.762,1.7348629122144763,135.23357765140094
3621.595,1.5753466508889788,151.5463462190052
3622.4302,1.4885175521276914,173.23447340181397
3623.2634,1.5123796367569955,162.26674596093375
3624.0989,1.6341691568569054,171.11630945503853
3624.9326,1.80021122682301,161.4241471924039
3625.7686,1.9540460229463952,175.00267310147174
3626.6028,2.0632698089838257,186.07729507007198
3627.437,2.1254683671415684,154.62387004196106
3628.2734,2.153164450180337,149.22517373419674
3629.1082,2.1604599834058407,144.03863031565731
3629.945,2.1576244210835727,154.058971931486
3630.78,2.1507048681450405,197.04939821514787
3631.6174,2.143145943187139,159.43753498729112
3632.453,2.137263875134036,193.96362169585737
3633.2883,2.134642377075915,178.9214064546667
3634.1262,2.1360453731759845,159.60875571024133
3634.9622,2.141146883783775,174.285093396182
3635.8005,2.1488148592199985,167.44772543080586
3636.637,2.157560480310211,190.75387487864995
3637.4756,2.1660243500109577,176.83616418571793
3638.3123,2.1728677888114425,160.89950716827937
3639.1492,2.177000036785728,138.2488085057853
3639.9885,2.1777981196096956,149.1975495109645
3640.826,2.175463784016757,162.9374676926672
3641.6653,2.1710186456809044,143.57439404480508
3642.5032,2.1659146200375927,165.23807807220516
3643.343,2.161374120073689,168.33735710931705
3644.1812,2.157958687859201,178.9805356515973
3645.0195,2.155343618063069,155.46853983765033
3645.86,2.1526800035787947,146.25018088985826
3646.699,2.1492393049926175,148.09674857117793
3647.5398,2.144821944392789,166.21594192998532
3648.379,2.13976654422792,189.65740696238382
3649.2202,2.134504301227923,149.3616343846664
3650.0596,2.1293846202408475,164.56710360956052
3650.8994,2.124538676718035,177.42266202317796
3651.7412,2.119926950157602,192.44501530156148
3652.5813,2.1153661496523513,170.75847945034482
3653.4236,2.1106119511781607,184.48044520044235
3654.2642,2.105687262168623,164.50025391944473
3655.1067,2.1008687855602513,157.98422832220402
3655.9475,2.0966342160172773,148.1154373008897
3656.7886,2.0935213916620565,163.1144924800876
3657.6318,2.092295700050203,188.98498250933403
3658.4734,2.0938898997635373,200.8503422578136
3659.317,2.0987867206835538,183.7923806991722
3660.1587,2.1061730162957866,169.18532852415947
3661.003,2.1139327416309617,175.75963861563068
3661.845,2.119538309253333,169.91898070648722
3662.6875,2.1215033407611497,162.04442486130873
3663.532,2.119752694265944,177.93627752012037
3664.3748,2.1150879902141306,165.70705544227152
3665.2197,2.108276228067797,177.64210410705257
3666.063,2.0998370759257123,154.48661497017838
3666.9084,2.0902882414059207,173.7226369708541
3667.752,2.080691028603192,171.9127288769366
3668.5977,2.0723135603984857,174.78852337971588
3669.4417,2.0662126413259827,161.0722334463215
3670.286,2.0626741738908545,160.29151864769014
3671.132,2.0613463235111054,201.51353562666378
3671.9768,2.061482317965503,165.1443583884706
3672.8235,2.0620927499313892,177.82837281982765
3673.6685,2.0621018758552716,185.6200394000744
3674.5156,2.0606872224451473,169.67102634959426
3675.3608,2.057729838986269,177.14812156929116
3676.2063,2.053960997935025,176.37883875800122
3677.0542,2.050586228525103,194.64977713448778
3677.9,2.048573695340762,182.31760752660628
3678.748,2.0480402078121145,194.68581895198992
3679.5945,2.0483635954173107,174.8599988878596
3680.4429,2.048713595920291,179.248877320246
3681.2896,2.048512049962424,195.64617270476165
3682.1365,2.047428576433193,159.28761545790735
3682.9856,2.0451040842608514,207.9770621273672
3683.8328,2.041119424634526,185.4892905139164
3684.6824,2.0352576651594045,191.25026957301685
3685.53,2.027997814673454,183.2050996144477
3686.38,2.0204902569587078,172.48876827688773
3687.2278,2.0142770569239166,181.2772448674938
3688.0762,2.0104718062361693,186.16893013690063
3688.9265,2.009316569970356,185.2743941917997
3689.7751,2.0101454232264766,197.81857006689378
3690.626,2.0118263373995036,214.08953374079377
3691.475,2.013289299549388,208.13413977677175
3692.3264,2.0138709650839637,203.72366534714828
3693.1758,2.0134140777805767,170.71307840664556
3694.0254,2.0122877816788924,179.82010553905474
3694.8772,2.0112178798588576,167.02412245287547
3695.7273,2.010892422593476,216.81616074732833
3696.5793,2.0114487362480644,169.9672508494596
3697.43,2.012238694862954,205.9381713053154
3698.2825,2.012057495533758,159.38279926785896
3699.1333,2.0097401157189902,198.20068705139303
3699.9841,2.0048489557141767,176.88169812284517
3700.8374,1.9980633157484065,226.6498936250405
3701.6887,1.9910555288374594,173.49044313253114
3702.5425,1.9854953931650494,186.2840177741275
3703.3943,1.982186950557441,198.10522386410614
3704.2483,1.9806452498986955,198.41608726911122
3705.1003,1.979733979861647,173.84674772051284
3705.9526,1.9784932439020586,201.16367918315947
3706.8074,1.976621218199445,186.32079073757544
3707.66,1.9744085042217157,181.13624935162414
3708.515,1.9723191289090605,207.69138053607858
3709.3682,1.970631857541052,223.9557271685897
3710.2234,1.9692217390897417,193.23101369421454
3711.0771,1.9678100087849126,204.51103454089002
3711.9307,1.966381155747747,206.77459936439615
3712.7866,1.9652926294675326,211.62797002732736
3713.6409,1.9648157345956985,215.26480767435277
3714.4973,1.964605690200344,174.58658535225007
3715.3518,1.9638001093267419,197.60057316311074
3716.2085,1.9615747604660227,228.38250251436102
3717.0635,1.9576056888185307,196.68802609574104
3717.9185,1.9520891513449152,175.12450037769207
3718.776,1.9455976303176146,208.63797684586785
3719.6313,1.9389940988595695,179.0923721555593
3720.489,1.9330921471043883,144.98681818738802
3721.345,1.9285018933631062,205.09718838248583
3722.2031,1.9254115131091467,218.59968800060562
3723.0593,1.9238398584280156,199.30215514758754
3723.9158,1.9238041331308873,193.03355165878415
3724.7747,1.9252708832606846,197.8359361720347
3725.6316,1.9277583121928727,231.64071194003924
3726.4905,1.9302138129566293,176.02911131889144
3727.348,1.931389424294907,210.79872080182602
3728.2073,1.930579826794943,201.7045228433222
3729.065,1.928059257688076,197.63371686234663
3729.9229,1.9249165612847428,204.92735036075067
3730.783,1.9223532280719549,219.978810012799
3731.6414,1.9209154111664768,221.36660207804502
3732.5017,1.9201864955739885,215.27434144077426
3733.3604,1.9192965694225406,240.8592771838165
3734.2214,1.9176324629258719,204.05155629359564
3735.0803,1.9151216599373264,220.1797357573798
3735.9417,1.9118906481866507,198.89402483138355
3736.8013,1.9080534618967737,215.98467086980057
3737.661,1.9038766743178372,195.0248219013858
3738.5227,1.9001380574974707,230.8399269668104
3739.3828,1.8979751256352264,235.429684868043
3740.245,1.8980513674189101,202.82481868922227
3741.1055,1.8998688577376992,206.9333185786332
3741.9683,1.9018256124484079,238.12683027885748
3742.829,1.9020791004334825,230.07599614062477
3743.69,1.8996287369728853,215.73205049997034
3744.5532,1.8946958386336579,245.41174847197914
3745.4148,1.8883178067871103,235.75016330598217
3746.2786,1.8813613589353426,230.04229607544798
3747.1404,1.8741238222985814,233.0241085201925
3748.0044,1.866525602871216,221.69011918002047
3748.8667,1.8589811201785904,217.88747089025742
3749.729,1.8525662587460647,203.1181541712166
3750.5938,1.848550721853907,234.19658305163125
3751.4565,1.8475788728005589,241.86064463808188
3752.3215,1.8491873805506036,273.6166059147009
3753.1848,1.8520990895652643,250.35640637187396
3754.0503,1.8549375292854744,228.2503231556287
3754.9138,1.8568445168547911,194.19052431333398
3755.7776,1.8576810600205325,197.9207521967631
3756.6438,1.857545875866534,233.05061877168347
3757.508,1.8562823550973264,214.9034907624205
3758.3745,1.8536331455427204,205.20291092958195
3759.239,1.8499663884764226,202.31272380661443
3760.106,1.8464582461449197,238.20926675394455
3760.971,1.8443771534321245,247.11005363940512
3761.8362,1.8439816922517114,202.27240475336077
3762.7036,1.8443461350948491,220.17543609937633
3763.5693,1.844070650038568,214.32301890275787
3764.437,1.8421771142329266,234.46060172424234
3765.3032,1.8385337825760948,194.08461182105637
3766.1714,1.8337268268726437,216.05970305563284
3767.0378,1.8287036099113594,248.56497480679613
3767.9043,1.8241231862105722,228.18576649827082
3768.7732,1.8199058024843515,205.24138286098952
3769.6401,1.8153337460975074,220.4321496882349
3770.5095,1.809676108148418,202.76608817955756
3771.377,1.8030713533338585,248.84704085865422
3772.2466,1.7965447083868076,236.82012695999086
3773.1145,1.7914662284881342,241.34496580610903
3773.9824,1.7885922619656347,290.28984496931406
3774.8528,1.7877657661081459,262.5759261378639
3775.721,1.7882534681366475,267.1275089087266
3776.5918,1.7894327465369166,227.16031023783228
3777.4604,1.7912507565713536,258.27524862156383
3778.3315,1.7941397040738134,272.0099845018539
3779.201,1.7984352349580746,250.57332777073339
3780.0703,1.8038873548737968,226.2108155484464
3780.942,1.8095104274732579,216.43206805112038
3781.8118,1.8138754812273359,231.1425245729249
3782.6838,1.815852663600977,234.17249969240288
3783.554,1.8151449890794036,219.01954165676872
3784.4265,1.8124630154144132,234.78855991520385
3785.297,1.8090540719912038,257.83340500007455
3786.168,1.8057971803250974,203.97740240307652
3787.041,1.802545199896987,225.87540872012138
3787.912,1.7982524864513934,233.8734598690453
3788.7856,1.7918301492809094,248.19152478012134
3789.6572,1.7832452211281935,227.76208168852725
3790.531,1.7735812221259957,209.2351105243875
3791.403,1.7644007889698907,252.02183690182608
3792.2754,1.7565828480120333,255.67593368585312
3793.15,1.750020919821871,262.8580539795423
3794.0225,1.744108482370869,234.39530409828737
3794.8972,1.738351018435282,221.4299477613492
3795.7703,1.7327942249229908,272.91384969207536
3796.6455,1.7276912883581284,256.2097012767871
3797.519,1.7232564455513497,234.47245607333525
3798.3926,1.7195465272247556,291.6370406064525
3799.2686,1.7167121091043342,255.82572728279567
3800.1426,1.7151156254770863,279.36551816015844
3801.0188,1.7151316540125747,230.41711436374396
3801.8933,1.7169724197786236,291.6935693579956
3802.77,1.720616713343404,228.4836035989559
3803.6448,1.7257589365851769,286.3664972226538
3804.522,1.731868880838119,275.29850748033834
3805.3972,1.738229232341755,213.123345772254
3806.2727,1.7443091685548962,259.0313223478775
3807.1504,1.7498479068260198,213.91383932042797
3808.0261,1.7546994968335674,241.91489702580162
3808.9043,1.758821556030744,219.36044103219643
3809.7805,1.7623032016886524,250.66431131143685
3810.659,1.765553154001095,239.10768704189118
3811.5356,1.76900590804723,231.4873263827502
3812.4126,1.7727744998287767,250.62735700099694
3813.2917,1.776512073816142,227.5802704169303
3814.169,1.7796802918016699,251.1684503400325
3815.0483,1.781908132452873,220.72718384280506
3815.926,1.782864346738932,223.42448312997968
3816.806,1.782058077060388,260.7007653737635
3817.684,1.7789118630213612,223.09891178498995
3818.5623,1.7732098054482992,239.7432661716442
3819.4429,1.7654017685582517,208.9276998627656
3820.3215,1.7565017322299914,266.8268038650272
3821.2024,1.7473803606616762,256.2043211273056
3822.0815,1.7384459536184669,229.91543864604233
3822.963,1.72943713865509,244.15123235783912
3823.8423,1.7199546007426403,280.4115922558052
3824.722,1.709826356468185,242.83539561811236
3825.604,1.6994608538424334,262.1540859735936
3826.4841,1.6897189835228097,266.4183816174635
3827.3665,1.681052066674613,282.9328793307457
3828.2468,1.6730164618169365,286.40504724097906
3829.1296,1.6641239865702855,249.0844895497225
3830.0105,1.6529015647342074,280.2452727748086
3830.8916,1.6388198434880787,238.82022321774616
3831.7751,1.6226461203637899,333.7499312887864
3832.6565,1.6059154290943052,315.8950344677636
3833.5403,1.5897454170831384,296.9193561317016
3834.4224,1.5749655165449894,288.29633780200334
3835.3064,1.5622588993109399,350.15801647245337
3836.1887,1.5527155163661166,316.4387142971691
3837.0713,1.5473675473864523,293.6370338772546
3837.956,1.5467993866812144,328.635083481053
3838.839,1.5508787938596056,335.23388769999457
3839.7244,1.5589100085825112,338.6125578175066
3840.6077,1.5698629148264784,305.59515067372695
3841.4932,1.5828089088715485,289.99335450116024
3842.377,1.596973229777014,256.515221184601
3843.261,1.6120534884316022,291.8478641911527
3844.1472,1.6280494995767558,299.99842897318325
3845.0315,1.64482135234009,312.7958546003252
3845.9182,1.6620219188854946,265.5522322448685
3846.803,1.6786975638492292,253.04013541012557
3847.69,1.6938881808641733,328.42478824871347
3848.5752,1.7068025395979074,242.5297340503967
3849.4604,1.717500559322602,279.3644488542915
3850.3481,1.726912116840857,269.24133225721755
3851.234,1.7363663069910769,256.62494111956045
3852.122,1.7469085307769776,244.31265143722825
3853.0083,1.7583556764837887,224.7451142239285
3853.8967,1.7694853913431663,219.20184514376206
3854.7832,1.7786286631730874,236.36024953494206
3855.6702,1.7848335879353927,246.68693651319273
3856.559,1.788195971748734,241.99223464402252
3857.4463,1.789609789829602,239.61946432942747
3858.336,1.790161020356011,267.8919565463347
3859.2234,1.790484165963003,256.5483775491291
3860.1135,1.7904991529292043,262.8217684842626
3861.0015,1.7896076284667937,263.27455401905104
3861.8896,1.7872254544943151,222.03265024527389
3862.7803,1.7831770157614308,266.682386286924
3863.6687,1.7777173102357706,235.72068114242498
3864.5598,1.7711288863560024,265.56661150706043
3865.4487,1.7636273434363632,248.39775470128365
3866.34,1.7553443883395317,261.17970021103145
3867.2297,1.746764909222184,295.1418717302332
3868.1213,1.7386329066122224,259.3576354766761
3869.0112,1.731655634365553,304.02432738802526
3869.9014,1.7256542412829081,245.5743904012415
3870.7937,1.7192017707214853,247.72253699078888
3871.684,1.710130515662009,281.8456184214311
3872.577,1.6967072571366948,241.36626493952554
3873.4678,1.6790558437634644,274.9517573260647
3874.361,1.6589565788129055,287.6485761941886
3875.2524,1.6388875567287804,246.07941020850984
3876.1438,1.6201216693434979,318.51796525809533
3877.0376,1.6023187663306677,279.630672658947
3877.9297,1.5844479673316814,302.7181411758151
3878.8237,1.565749739872432,303.8087460634569
3879.716,1.5465963008785069,376.4776975676753
3880.6108,1.5276181890595628,324.68362581008597
3881.5037,1.5090182520132598,302.9719622817304
3882.3965,1.4898062032868444,339.6620162855511
3883.2917,1.4685185338632476,321.95707669319745
3884.185,1.4445279041263346,324.9060123736737
3885.0808,1.4183250526130828,353.32804382739704
3885.9746,1.3916666545672354,417.6606362816292
3886.8706,1.3661668209454991,420.18229826965023
3887.765,1.3431314855538756,444.9314623020735
3888.6592,1.3232959412392507,433.55855039970436
3889.556,1.30758342097775,467.9373424094816
3890.4507,1.2974605936335666,473.61828890062554
3891.348,1.2942392814916348,613.495447008801
3892.243,1.2984982379712307,531.5716870103951
3893.1406,1.3096490230001205,447.4065745494957
3894.0361,1.3261073891043313,400.3953062751088
3894.932,1.3461062508537782,391.5533255918838
3895.83,1.3682358127431509,428.5835810766894
3896.7263,1.3915074249035306,417.9167195210353
3897.625,1.4156102803340525,364.545086742744
3898.5215,1.4401050991589586,331.520229566644
3899.4207,1.4647184992694595,326.7226278491091
3900.3176,1.488960238417604,403.5441474547219
3901.2148,1.5128187756484575,375.76123948251546
3902.1145,1.536492935114035,349.76081449470627
3903.0122,1.5599116619327613,318.7540353027211
3903.912,1.5829475119763274,317.58351691923735
3904.8103,1.6051383703735262,314.2937854014578
3905.7107,1.6263428376508704,319.5396976178497
3906.6094,1.64640467247447,270.46992310736204
3907.508,1.665321420534356,275.1583028473328
3908.409,1.6829852098879896,258.3105905385895
3909.308,1.699147424746234,234.48285265093665
3910.2097,1.7139405356041197,270.2714396759477
3911.1091,1.7277239680652148,225.57448626113785
3912.011,1.741169500658467,264.47320905841667
3912.9111,1.754516232229298,253.7150384819932
3913.8113,1.767546581989326,273.7061343526623
3914.7136,1.779767515400005,226.67103695498685
3915.6143,1.7908545244575789,246.96113531867667
3916.517,1.801101761142521,232.5592925139085
3917.4182,1.8109964216085803,242.56901362514495
3918.3215,1.8209254715534142,248.2157202181574
3919.223,1.8306934625543565,222.90569118951663
3920.1245,1.8397483925819704,219.51455536885845
3921.0286,1.8474385925946655,209.90354132033633
3921.9307,1.853298725994377,218.07447461837629
3922.835,1.857273661329601,231.24027835214338
3923.7373,1.859486059324215,230.4824755853394
3924.642,1.8601733675043879,202.84092666493692
3925.5452,1.8596474829820007,216.12838222097486
3926.448,1.8583783772377889,226.59040671565432
3927.3535,1.8569385239393006,229.53013352753467
3928.257,1.8558499513340327,213.30512467679537
3929.1628,1.8553188189067367,225.48456000622977
3930.0667,1.8550500187004166,206.59388525129353
3930.9731,1.8542307324846488,229.3837525529197
3931.8774,1.8518757296803667,200.59841584707522
3932.782,1.8473562924150873,252.97328015366736
