wavl,flux,ivar
3566.9744,1.6075210726201137,163.036986165823
3567.795,1.603971447944089,177.4206888347858
3568.6177,1.600950746855844,158.23422185569305
3569.4385,1.5976922626487922,270.9042296263556
3570.2617,1.5942230020521126,179.82216401220947
3571.083,1.5912996931626917,217.79254174591892
3571.9065,1.5897818385243403,236.96021004279137
3572.7283,1.5900189711075825,212.49303282814742
3573.55,1.591458178531626,199.19959092566492
3574.374,1.5929006313986478,201.9078858449007
3575.1963,1.5932281534704902,213.06456076324926
3576.0208,1.592213843664861,209.76445854349365
3576.8435,1.590751134443403,222.86950232594987
3577.6682,1.5902438371606162,210.68533816389615
3578.4915,1.591548000814318,186.90132651404934
3579.3145,1.594236003395909,249.1404692792104
3580.14,1.596858153915651,197.58996140941463
3580.9636,1.5979440950073167,166.39432985545616
3581.7893,1.5970052000061972,198.07274233283846
3582.6133,1.5946424593714532,224.56815083823506
3583.4395,1.5918934732129293,167.87302834039085
3584.264,1.5895353508148842,155.71718740495785
3585.0884,1.5877206048057158,163.76358275099125
3585.915,1.5861034085795485,227.39910818226033
3586.74,1.584183485461153,243.64039658732798
3587.5671,1.58163311049742,187.97921910813875
3588.3923,1.5785224779650544,241.21493427758764
3589.22,1.5751692910643136,178.70057871340728
3590.0457,1.5718958728111345,260.63994260852144
3590.8716,1.5687227442423033,232.1995976481206
3591.6995,1.56550759100964,212.59189871066036
3592.526,1.5624250872412346,295.9180371611274
3593.3542,1.5602390657751832,245.61268152598848
3594.181,1.5599756850159272,215.76190799656322
3595.0098,1.5620158226450327,223.5039071431332
3595.8367,1.5655284787236645,214.52556182610732
3596.6638,1.568784989296531,321.9676298391876
3597.4934,1.569998248386536,247.05514264366664
3598.3208,1.5681354635028866,180.83045707120738
3599.1506,1.5633281343514285,232.64003586206695
3599.9788,1.5568546570092003,202.67190001451382
3600.8088,1.5506437395545942,238.1368604442124
3601.6372,1.546663757041292,293.15796170158563
3602.4678,1.5459482704886758,363.55971186932385
3603.2964,1.547918707345947,218.80678416707647
3604.1252,1.550384168926636,198.69836144179177
3604.9565,1.5507121394729915,285.27314191417486
3605.786,1.5475886693148861,201.16923846990116
3606.6172,1.5420424100649905,190.97958244122987
3607.447,1.5368105225945137,200.0310241054735
3608.2788,1.5343668033096212,242.4391415009435
3609.109,1.5353687181038638,266.4820914653094
3609.9392,1.538440462463816,292.46728086010285
3610.7717,1.5413556317653707,232.97041108789068
3611.6023,1.5424656576199764,205.6696212827571
3612.435,1.5415145133942576,275.2740909488615
3613.266,1.539324400667821,221.59130157499465
3614.0994,1.536847778380324,282.62616024270613
3614.9307,1.5344574820105525,278.3160846831446
3615.7625,1.5319000083413294,295.8749295614841
3616.5962,1.528861242652304,212.7983363953279
3617.4282,1.5254682467988587,202.90878452596772
3618.2625,1.5222411998870298,288.4456586113879
3619.0947,1.519750339664655,239.63063544972928
3619.9292,1.51816749903665,232.4873256924074
3620.762,1.5172566492953359,262.520404130657
3621.595,1.5166108122265347,255.80498313260262
3622.4302,1.5160044399105796,230.14318535002462
3623.2634,1.5155436487905658,194.10867652239935
3624.0989,1.5155006970355958,263.92741283535594
3624.9326,1.5159443600152864,202.40466286988163
3625.7686,1.5164433996109268,190.3551140712474
3626.6028,1.5161615825807333,215.6401726054459
3627.437,1.5143640567148013,309.3679221915428
3628.2734,1.5109636250949032,277.1155205117261
3629.1082,1.5068089077414928,215.09276870519216
3629.945,1.503363195885698,201.28498353450513
3630.78,1.5020660190799255,305.32275330543877
3631.6174,1.5035709541371065,218.6235985732047
3632.453,1.5075412017128484,222.83405746861737
3633.2883,1.5129629278981986,291.49428653576706
3634.1262,1.5185557901981184,295.8953130327522
3634.9622,1.5229559350208592,205.203834795162
3635.8005,1.5251159365867337,315.4220370469961
3636.637,1.5247315806937258,241.1223641123649
3637.4756,1.5226180699973173,192.72787074360775
3638.3123,1.520331766263248,245.6375988368028
3639.1492,1.5191213705988122,274.0559332354842
3639.9885,1.5191101446155628,202.20035219861364
3640.826,1.5194316876836371,255.24811307563834
3641.6653,1.5192293972423148,160.39026724002736
3642.5032,1.5184804503734124,168.50212156391373
3643.343,1.5178224272460064,372.52539064089996
3644.1812,1.5176864274288737,217.64362169552425
3645.0195,1.5177024910538128,225.75906223908714
3645.86,1.5169433289748415,275.46140856116347
3646.699,1.514610564086214,268.85479042835743
3647.5398,1.510491611469651,266.05878713816986
3648.379,1.5051026449643174,190.40069684392256
3649.2202,1.4994966319488807,202.5438426861778
3650.0596,1.494999610034035,266.03771237126557
3650.8994,1.4925104133991336,364.1276488565388
3651.7412,1.4920813328099687,216.42046327852927
3652.5813,1.493002005111762,218.5444942754311
3653.4236,1.4943622145110902,249.08275196408297
3654.2642,1.4954274920584525,362.1915383757301
3655.1067,1.4955954520635555,305.8304345282038
3655.9475,1.4942843784243307,253.11858880026418
3656.7886,1.4911800452658586,291.54611602235394
3657.6318,1.486572664069595,241.60219632233537
3658.4734,1.4814262825949112,220.56916010753002
3659.317,1.476948473807141,353.18821971462927
3660.1587,1.4742308369966781,207.9905504590567
3661.003,1.4738014793316703,314.3281885660614
3661.845,1.4753513503875957,183.7781243275475
3662.6875,1.4777181226416347,246.39941661802584
3663.532,1.4795031923254014,235.64597073715225
3664.3748,1.479965707758814,228.0044969208243
3665.2197,1.4794120375534405,247.19452802080087
3666.063,1.478645723874737,171.0563026028145
3666.9084,1.4781980722554746,302.48286514232166
3667.752,1.4782313672662792,203.6569209495685
3668.5977,1.4789981501682272,231.4376458675639
3669.4417,1.4809569287383146,349.42003988615124
3670.286,1.4841337943291302,287.29918619838395
3671.132,1.4874851461734337,290.8316135701022
3671.9768,1.4892641574888899,203.38686375029326
3672.8235,1.4883561742686564,238.10319042349863
3673.6685,1.4851574717278022,240.6436477872032
3674.5156,1.481088410968109,233.15755798871749
3675.3608,1.4773062131878938,183.32012275288287
3676.2063,1.4737912436445282,287.9944046409231
3677.0542,1.469741332739406,318.46553229243915
3677.9,1.464722280061612,296.9862835565954
3678.748,1.4593958529354771,229.4618025591763
3679.5945,1.4554044765402447,417.8306722214238
3680.4429,1.454244707465882,254.94625505370013
3681.2896,1.456354986661909,246.64134988721477
3682.1365,1.4609188734955654,244.4548678277889
3682.9856,1.4664576234941522,273.895811499399
3683.8328,1.4714638802230278,207.16892914844522
3684.6824,1.4749068107648042,274.05000758913775
3685.53,1.476272549333715,225.89662472591732
3686.38,1.4756297438641932,280.11929416309556
3687.2278,1.473529379983999,282.6920122003572
3688.0762,1.4708425118185326,275.5867941308817
3688.9265,1.4684876191810157,215.62579407745747
3689.7751,1.4670788125834369,241.11666810517434
3690.626,1.466533485913249,203.09167803667185
3691.475,1.4659330110394881,257.72212801946984
3692.3264,1.4637890740712125,204.19311217367334
3693.1758,1.458890609754784,328.60442174022137
3694.0254,1.4512046866720087,277.4444243381644
3694.8772,1.44217885962867,288.766286840249
3695.7273,1.4341985094307832,297.1622592030678
3696.5793,1.4293389191126191,271.48389958099733
3697.43,1.42860018738427,270.34129277916225
3698.2825,1.4315227248068698,247.84684553052313
3699.1333,1.436422953338835,347.52481365706313
3699.9841,1.4410612379794425,247.02058360463033
3700.8374,1.4434871945613585,211.74389213047874
3701.6887,1.4427131189376592,194.1733633402623
3702.5425,1.4388923481322333,304.62371773169383
3703.3943,1.433008831578429,260.376552437804
3704.2483,1.4264770714482056,320.2635685605673
3705.1003,1.4210789390618965,271.2466127478056
3705.9526,1.4184881163856513,263.9159142467372
3706.8074,1.4195053669210238,235.59950277129784
3707.66,1.4232698454906458,191.91186094674885
3708.515,1.4275705113076456,245.25325583288893
3709.3682,1.4301765941975852,229.27874513866126
3710.2234,1.43026284254814,334.4512473615728
3711.0771,1.4285122890119235,298.42790291947085
3711.9307,1.4260900371136949,248.63892397047758
3712.7866,1.4235529383660235,248.38484929565277
3713.6409,1.420722261510377,237.95866623498537
3714.4973,1.4172667298173662,225.87091779480855
3715.3518,1.413376986082865,273.762360870106
3716.2085,1.4097667421158333,237.29706506379992
3717.0635,1.407321019983676,236.0645037498857
3717.9185,1.4064816636407083,416.8524998263882
3718.776,1.4069159500640955,449.565411974171
3719.6313,1.4075438325734921,330.940640433638
3720.489,1.4070356797954833,255.6957791850895
3721.345,1.4044851147380086,235.5950823222803
3722.2031,1.3998582261916632,334.84629995661174
3723.0593,1.3940827947301493,249.14428092151488
3723.9158,1.3885465485476494,242.55681340760574
3724.7747,1.3843376985272278,296.5563735981008
3725.6316,1.3815439446862645,273.54499366754436
3726.4905,1.3791787385381022,304.8032051653779
3727.348,1.3761757678301718,342.2919420369989
3728.2073,1.3724652905710246,265.2951868368358
3729.065,1.369238745336563,323.0055439549527
3729.9229,1.3679242340156808,284.3395142880359
3730.783,1.3689704748065599,273.60508858834123
3731.6414,1.3714267407723089,343.53329566966255
3732.5017,1.373693705929282,287.2234749184839
3733.3604,1.3745992722111748,226.8810492392299
3734.2214,1.3739428985346416,221.00338485655283
3735.0803,1.3721703180810894,331.1108706365589
3735.9417,1.3697752088183908,253.84056674848665
3736.8013,1.3671313268440317,273.9608714895685
3737.661,1.3646788875245284,312.118756600418
3738.5227,1.363076345146689,278.23318755620227
3739.3828,1.3629355217657744,293.7374322544518
3740.245,1.364354813959501,355.30336440725057
3741.1055,1.3667518927682778,257.923308114945
3741.9683,1.369157488628193,262.194625909878
3742.829,1.3706829201360706,258.9944937940436
3743.69,1.3709990461857513,244.15463014275267
3744.5532,1.3704538677576983,281.86833247911346
3745.4148,1.369846010100885,267.4055055819376
3746.2786,1.3698673883836652,383.6414518007308
3747.1404,1.3705565947482288,240.65785625389006
3748.0044,1.3711273679499083,283.34372587665393
3748.8667,1.3703217887378965,348.5636377257324
3749.729,1.367093367926807,265.9324651234302
3750.5938,1.3611424284459663,277.19382889441613
3751.4565,1.353161174588053,289.98306314518015
3752.3215,1.344540590636536,331.243888306008
3753.1848,1.3371418422207682,303.3628214983732
3754.0503,1.3326545571323638,321.05166814965105
3754.9138,1.3320955777614454,339.80957266172214
3755.7776,1.3352290488587166,457.5469556113818
3756.6438,1.340612678767473,292.0993757501723
3757.508,1.3460956446629213,273.3069484525492
3758.3745,1.3498330676376133,271.9554159767055
3759.239,1.3509721274450646,290.9672592719357
3760.106,1.3499029253216241,359.0160445870621
3760.971,1.3477772760299502,428.08674467460514
3761.8362,1.3457555956168872,311.88585447537565
3762.7036,1.3444639813074257,323.52004021520236
3763.5693,1.343884668395282,335.15110452496674
3764.437,1.3435505747511132,305.66771652921636
3765.3032,1.342885832378259,313.0641633567763
3766.1714,1.3414866772423113,312.0391378703246
3767.0378,1.3393150667618692,275.84477019067634
3767.9043,1.3366787453096174,354.31658585873464
3768.7732,1.3340547458581176,298.0527522612637
3769.6401,1.331893877265212,310.6444360545553
3770.5095,1.3304552983637565,384.44686028666433
3771.377,1.3298177788660435,300.85238762535545
3772.2466,1.3298155228118562,307.6611761226221
3773.1145,1.3300186105520166,281.6828258109281
3773.9824,1.3298139313336055,255.59494695626276
3774.8528,1.3286794995788633,313.72225775230385
3775.721,1.3265827243020936,308.3739407730186
3776.5918,1.3241656185190782,411.17109529010656
3777.4604,1.3225118086104155,370.49512539088465
3778.3315,1.3224127289390124,346.07018819163557
3779.201,1.3238275476199426,350.85657276074863
3780.0703,1.3259042279103905,341.39338422928137
3780.942,1.327502944975686,246.73416726263798
3781.8118,1.3276997855670238,393.0721435751243
3782.6838,1.3260857811238502,319.692467680281
3783.554,1.3228420547868907,296.2465406654044
3784.4265,1.3185991039865734,337.3347046664105
3785.297,1.3141800631114706,248.05304105083687
3786.168,1.3101444981358183,395.4489448916806
3787.041,1.306629970814503,314.4000794410175
3787.912,1.3035199220682228,392.51815420418416
3788.7856,1.3007386899053222,327.67155037735756
3789.6572,1.2985258426462063,281.0966770833
3790.531,1.2972223497106827,354.29737879118534
3791.403,1.2969330036343285,388.8272633254473
3792.2754,1.2973044558234201,290.2880749711854
3793.15,1.2977089126974999,270.2254816661192
3794.0225,1.2975741913635217,323.7698523639553
3794.8972,1.2966034175327137,314.9771731836041
3795.7703,1.294791843897291,310.504863688872
3796.6455,1.2923411725339495,394.4926396638478
3797.519,1.2896827924637775,352.95356024788543
3798.3926,1.2874700221965905,387.49994899050677
3799.2686,1.2864286993531178,339.0570852451003
3800.1426,1.2868503532583897,339.36968596429534
3801.0188,1.2880616099413762,262.0981259158154
3801.8933,1.2885847530674968,261.9606948640576
3802.77,1.287151104001846,338.8885020882589
3803.6448,1.2837379285134956,302.2637689334027
3804.522,1.279553497098629,243.18211629340686
3805.3972,1.2760544699375593,332.4405601431798
3806.2727,1.273836478642062,314.4906707768304
3807.1504,1.2725479612421398,294.3181572015732
3808.0261,1.271508708507154,363.0729827734238
3808.9043,1.2702823031817774,306.46618818779007
3809.7805,1.2688598617329891,328.10082517308734
3810.659,1.2675327364454108,475.541557480214
3811.5356,1.2667981473624352,566.4464294420666
3812.4126,1.2672001922407115,408.3977979898636
3813.2917,1.2690630060458012,362.42229884912354
3814.169,1.2720755059187228,350.65412695963835
3815.0483,1.2751956073307285,381.3973781141619
3815.926,1.277092576741741,378.71021241339537
3816.806,1.2770653605765174,329.7427603996458
3817.684,1.2754661928024795,322.0722469372159
3818.5623,1.2732556409726492,377.188669016481
3819.4429,1.2711435996258666,319.09493211562284
3820.3215,1.2692550063452472,369.2749303783353
3821.2024,1.2674142409766787,355.9142700447677
3822.0815,1.2656068748629878,408.5690975655938
3822.963,1.2640007535547018,355.00519649394283
3823.8423,1.262776680153552,402.18703883649954
3824.722,1.2619539645725686,312.6962665823416
3825.604,1.2613663153075223,379.4667703718298
3826.4841,1.260650524416027,393.40245629164315
3827.3665,1.2593019007961643,267.65377976996507
3828.2468,1.2569222642500821,391.06439176195715
3829.1296,1.2534603183748148,416.80924114999
3830.0105,1.2493238075323931,329.7394259306577
3830.8916,1.2450922601244572,351.66499488380157
3831.7751,1.24118863427202,442.47382058110327
3832.6565,1.2377181719186263,368.85334182906104
3833.5403,1.234523901369093,325.4550258787834
3834.4224,1.231582658249339,352.2193217390104
3835.3064,1.2291306410832628,429.149529713396
3836.1887,1.227531817351222,381.4542700186966
3837.0713,1.2268687713765254,414.8575361885397
3837.956,1.2268431946090013,379.15818383418065
3838.839,1.2270819295100852,320.5325565669603
3839.7244,1.2275436067799004,459.8205070082316
3840.6077,1.2285126434153035,380.05231967777735
3841.4932,1.2301860023894873,378.17228155739195
3842.377,1.2323380345374408,358.63898480828175
3843.261,1.2345444427512287,295.6731015880039
3844.1472,1.2366273055146388,359.6345827861583
3845.0315,1.238738761654314,387.4442077105403
3845.9182,1.240994109528542,289.9649054474792
3846.803,1.2430531507787992,333.95952694261416
3847.69,1.244314509886575,312.96158986130513
3848.5752,1.2443992848393983,385.75563158977616
3849.4604,1.2434828569102963,402.0406025164964
3850.3481,1.2421293229700239,431.2108349545789
3851.234,1.2409472240111254,416.0249089255848
3852.122,1.2402846186137515,336.3472485103355
3853.0083,1.2401344283083988,324.7267477758287
3853.8967,1.24016869402687,331.34752123036924
3854.7832,1.2399452864969036,399.9879858984902
3855.6702,1.239168535747838,425.1764656104793
3856.559,1.2378506974703445,394.1501783469672
3857.4463,1.2362982116482675,396.37658422306316
3858.336,1.234912755762871,349.23887153424005
3859.2234,1.2339965624511577,429.0642005263691
3860.1135,1.2335743296024209,374.8579278127814
3861.0015,1.2334003866031618,407.0457250788564
3861.8896,1.2331185534057285,377.7377899262856
3862.7803,1.2325526803484588,413.81880392572305
3863.6687,1.2318812253278102,368.43254101912896
3864.5598,1.2314606817324143,443.0306154560508
3865.4487,1.231433931885148,341.7630040744835
3866.34,1.2314563916049048,457.1319937386888
3867.2297,1.2308022678634665,381.88068942431175
3868.1213,1.2287208862802041,417.5974215985122
3869.0112,1.224855330319584,277.2999455793829
3869.9014,1.2195024612984768,293.17303676659316
3870.7937,1.2136162699270525,454.13411721456305
3871.684,1.2084620038954517,435.0004444100478
3872.577,1.20490204425915,469.7713657052946
3873.4678,1.2030707886185825,371.4248776109773
3874.361,1.2023448397442458,453.2689882586238
3875.2524,1.2017512673237534,450.1160551218289
3876.1438,1.200392329659508,353.00811010891704
3877.0376,1.1978218629706756,361.9479362603086
3877.9297,1.1942738416252896,319.14627727310244
3878.8237,1.190471046742121,409.63987099637507
3879.716,1.1871209064616672,433.2983845981518
3880.6108,1.1842182447010987,315.67675520575864
3881.5037,1.1809613003164054,323.3585620423249
3882.3965,1.17629831949354,351.89601253224663
3883.2917,1.1697907108929713,415.7614250328855
3884.185,1.1620170755472339,401.0013930775416
3885.0808,1.154025445684065,527.7471243330546
3885.9746,1.1467678035948619,417.44387897109533
3886.8706,1.1406135227270326,495.96961489233536
3887.765,1.1356365440457985,395.11407707665245
3888.6592,1.1318054767688663,446.3047796297944
3889.556,1.1291253250847886,538.7544101201364
3890.4507,1.1275920677866325,515.8925353760163
3891.348,1.1271870809878801,394.3900787995682
3892.243,1.1280514275275748,662.1905973211603
3893.1406,1.1304610434622109,347.372699140813
3894.0361,1.1345035518195326,488.9309080069429
3894.932,1.1398455385920938,472.36306769053436
3895.83,1.1458314112297538,409.041597341132
3896.7263,1.1517935021131684,432.0242149621504
3897.625,1.1573496904475424,390.5808457263773
3898.5215,1.1621258116510824,499.90057645805445
3899.4207,1.1656547170499247,397.47850101995556
3900.3176,1.1674789707309154,334.61065034248014
3901.2148,1.167834114276765,420.8753115993301
3902.1145,1.168000220940256,504.72695299805935
3903.0122,1.1698505754381143,456.29022424144
3903.912,1.1746940490202278,370.72734574245777
3904.8103,1.1822900822830489,421.85470209852065
3905.7107,1.1910368842984949,286.9352999413567
3906.6094,1.1989147312256114,428.8860427294833
3907.508,1.2047923090489385,413.26533955289455
3908.409,1.2088449362202462,404.8853120921647
3909.308,1.2121013483011551,356.7612997244104
3910.2097,1.2155557567106878,324.76633747373853
3911.1091,1.2193376400206413,318.5285049972823
3912.011,1.2227358781198265,317.4798252083395
3912.9111,1.2247726683889408,349.41574987908905
3913.8113,1.2250590294952286,338.30665034508934
3914.7136,1.2240799358775878,474.98891511887683
3915.6143,1.2228336999181757,411.2271748312826
3916.517,1.2220799472398378,378.73134161886253
3917.4182,1.2218728615686385,393.306295459662
3918.3215,1.2216834760252986,350.7073528917659
3919.223,1.2210022850805573,336.1827936626601
3920.1245,1.219864236334815,400.5280348686243
3921.0286,1.2188495347714292,422.25509302006657
3921.9307,1.2185827207642934,450.18807543047046
3922.835,1.2192144333573307,399.5173683910536
3923.7373,1.2204273298345383,421.78188068622467
3924.642,1.2218790712484056,379.12783084332153
3925.5452,1.2235263932691165,383.6773048116963
3926.448,1.2255648621864152,386.65323715761997
3927.3535,1.228059123150553,462.9749289085644
3928.257,1.2306031579698324,407.107420205578
3929.1628,1.23234769892548,327.08901082592473
3930.0667,1.232282924227917,326.4325191005126
3930.9731,1.2297385724909955,344.70285671655745
3931.8774,1.224751397787412,392.1899556522608
3932.782,1.2180793755310593,402.51128689039814
3933.6887,1.2109707213052048,371.0835536860419
