wavl,flux,ivar
3566.9744,0.9689384242635622,284.37177077692473
3567.795,0.9695714377350678,220.07423809196968
3568.6177,0.9707473989820656,213.54027934433617
3569.4385,0.971657803107196,228.0444391376544
3570.2617,0.9718035392965605,230.35429775081164
3571.083,0.971166733218879,255.2222370136095
3571.9065,0.969933264956604,253.3513961023081
3572.7283,0.9682223570162892,209.9704856380294
3573.55,0.9660935600536612,262.56338092078056
3574.374,0.9637235825637152,263.2461292741643
3575.1963,0.9614610409577071,217.78740830204055
3576.0208,0.9596219955686632,271.7405037674875
3576.8435,0.9583503857944853,262.58998043480926
3577.6682,0.957566906259064,245.44011388848187
3578.4915,0.9571255036673947,240.50360142319104
3579.3145,0.9569213354710963,213.70930080961327
3580.14,0.9568843078505046,232.88932502997292
3580.9636,0.9568755012978786,239.39586339343327
3581.7893,0.9566508716199277,292.88240343273316
3582.6133,0.9559889049790053,282.0040985404501
3583.4395,0.9549011834035459,248.4792978941911
3584.264,0.9537668907072502,237.278787548116
3585.0884,0.953187101052537,316.93692568583907
3585.915,0.9536419384416128,239.086138157244
3586.74,0.9551278807723039,334.5402843633599
3587.5671,0.9570715108030375,242.18860526085174
3588.3923,0.9585718358771357,260.4866908315202
3589.22,0.9589188351084177,233.4299399592971
3590.0457,0.9579564361751777,254.54800362686058
3590.8716,0.9560821907170313,249.88224241243918
3591.6995,0.953861773109533,287.8619206555477
3592.526,0.9517117494603258,262.7861140839558
3593.3542,0.9498619357186737,230.65881505876132
3594.181,0.9485254251888424,255.62842176541477
3595.0098,0.9477570027827527,354.01572294045053
3595.8367,0.9471914654927678,286.25189424877937
3596.6638,0.9460835971656874,220.95081493707247
3597.4934,0.9438689244417996,238.9970907505382
3598.3208,0.9407100308388445,320.0459510019629
3599.1506,0.9373402842559952,326.9281507140823
3599.9788,0.9345068932844407,247.65254793955324
3600.8088,0.9324266893017116,260.53466402395384
3601.6372,0.9308735687419494,257.5003936391552
3602.4678,0.9295024931247987,263.41130413007954
3603.2964,0.9281603049557293,303.29488999779795
3604.1252,0.9268894679972146,279.29469222662664
3604.9565,0.9258363378235365,324.5379381446916
3605.786,0.9251593052587219,315.24411606212465
3606.6172,0.9249259130250505,234.56966344358793
3607.447,0.9250194809509392,251.17123963458323
3608.2788,0.9250605632381296,253.90549383916203
3609.109,0.9245087616128986,289.7934966730894
3609.9392,0.9229802104302116,270.0353749028746
3610.7717,0.9205670485225981,275.92535828527923
3611.6023,0.9178823774131719,303.9292937209062
3612.435,0.915665575641585,209.6130811625367
3613.266,0.9143963353083503,332.20084402620347
3614.0994,0.9140605330764692,274.8250598138746
3614.9307,0.9142735383206623,276.8128285236443
3615.7625,0.9145600982156071,253.03097434379958
3616.5962,0.9146762333885494,279.4268274131122
3617.4282,0.9147329429593725,277.70019144944445
3618.2625,0.9149876876713205,303.63789311530047
3619.0947,0.9154677018418121,283.6761567716883
3619.9292,0.9158460468277381,320.3741491450662
3620.762,0.9157377121521452,262.59307371347666
3621.595,0.9151558488929636,301.64941178244663
3622.4302,0.9146432280035218,284.94587894508663
3623.2634,0.9149323484565816,320.114303822832
3624.0989,0.9163497862613097,310.8594958448475
3624.9326,0.9183890206031404,301.4165964979888
3625.7686,0.9198114244089556,307.4935206945338
3626.6028,0.9192654538841969,292.2703280827429
3627.437,0.9161958507543372,261.5129832352113
3628.2734,0.9113096712874024,330.80173278971154
3629.1082,0.9062910693775402,310.7457121825714
3629.945,0.9027431951222687,305.7907551216584
3630.78,0.9013962382832974,352.61793208045435
3631.6174,0.9019005202714732,271.4088861616683
3632.453,0.9033719940468827,295.6231953026516
3633.2883,0.9050422153379895,361.74265054371034
3634.1262,0.9066127733500899,332.4474140223226
3634.9622,0.9082080679549562,303.09055576699075
3635.8005,0.910128649694955,227.37259361601724
3636.637,0.9124577045397112,272.58546969955887
3637.4756,0.9148635395359619,296.0195400401684
3638.3123,0.9166234675818739,269.05300452680683
3639.1492,0.9170339729772577,326.4309176978968
3639.9885,0.9158143448436095,282.5391766465375
3640.826,0.9133677960302998,270.4881288095101
3641.6653,0.9106626077770545,283.37608229880937
3642.5032,0.9088639840708306,364.1398854486986
3643.343,0.9087376889538856,321.8670341284804
3644.1812,0.9102447291780077,292.2029978220549
3645.0195,0.912561990335753,268.8986350895177
3645.86,0.9146176144326521,344.42160828876416
3646.699,0.9157330894603383,259.27428401916364
3647.5398,0.9159512524950405,272.8219905636873
3648.379,0.9157738959950653,287.8811490023501
3649.2202,0.9156657716308514,250.22179017746888
3650.0596,0.9157092995416425,313.09156884257567
3650.8994,0.9156348700514074,284.9181241680178
3651.7412,0.9151469352695342,237.5730885829895
3652.5813,0.9142540643073395,278.92127808649934
3653.4236,0.913258685202238,315.93413470430386
3654.2642,0.9123817356548672,291.11879364789144
3655.1067,0.9113208014189612,318.37857459571137
3655.9475,0.9092861450609783,251.92449879480262
3656.7886,0.9055610245531021,305.27456075133455
3657.6318,0.9002107118900927,305.41867322415055
3658.4734,0.8943831391039895,311.0905018170236
3659.317,0.8897319983871479,396.6668402884323
3660.1587,0.8876166416456879,270.67442849118606
3661.003,0.8884058376079321,358.15139967213423
3661.845,0.8914903454781836,367.032013159727
3662.6875,0.8956942893462767,301.7108033558072
3663.532,0.8997433534423266,242.40305059291873
3664.3748,0.9026346358751807,311.55395712650443
3665.2197,0.9040443944015919,256.2307528893684
3666.063,0.9044457929471278,289.406199655317
3666.9084,0.9048444947950125,294.3557641494725
3667.752,0.90600335582815,322.1957035241558
3668.5977,0.9077376353616396,367.6087466499781
3669.4417,0.9088674036531186,296.71948395734057
3670.286,0.9080569587710241,325.90082893533304
3671.132,0.9048499655857563,341.50692378955875
3671.9768,0.9001538387042468,257.57806300730897
3672.8235,0.8956536322990163,271.5208845801444
3673.6685,0.8927938237275034,299.4615849017169
3674.5156,0.8919531355231494,348.16241705236104
3675.3608,0.8925510191125394,272.8077543158781
3676.2063,0.8936627997048436,251.09677558495264
3677.0542,0.8946065495492777,289.192353067996
3677.9,0.8950722996948951,302.4769393113207
3678.748,0.8950114356741229,288.64000477108056
3679.5945,0.8945436308136773,286.8625107391335
3680.4429,0.8939392613121901,293.98228244768535
3681.2896,0.8934785693182657,305.2307898489099
3682.1365,0.8931882314492946,361.96147897914483
3682.9856,0.8927774892062806,284.1360356450767
3683.8328,0.8919160087031861,363.8089261162448
3684.6824,0.8905751062143269,267.33696343904757
3685.53,0.8890885936914469,361.0014281331965
3686.38,0.887863177415244,261.1959230733879
3687.2278,0.8871737504702136,394.5280138997513
3688.0762,0.8871254057050748,303.8969962496788
3688.9265,0.887663610929065,344.9216647720998
3689.7751,0.8884081873153621,293.42894005366736
3690.626,0.8886143407558893,333.26507993016975
3691.475,0.8875723332545654,276.6282303755736
3692.3264,0.8852385954378912,295.9606679746108
3693.1758,0.8824141689903289,312.3081531887537
3694.0254,0.8801074963686224,264.09715011768486
3694.8772,0.8787885252875701,299.78451666185106
3695.7273,0.8782322650233666,298.82326079390964
3696.5793,0.8779641716373965,310.1899730528604
3697.43,0.8777140559121833,349.4341117868333
3698.2825,0.8773981699664957,314.0126883922411
3699.1333,0.8769130211998727,330.8144853947086
3699.9841,0.8761390164856845,301.88982062306883
3700.8374,0.8751581095630625,365.52588506580696
3701.6887,0.8743634913082854,290.6174212142194
3702.5425,0.8742549745964927,292.86559684157567
3703.3943,0.8751138285690677,345.6168583830672
3704.2483,0.876747102848566,288.14770642653355
3705.1003,0.8784550813148817,281.5700857486106
3705.9526,0.8793350379808011,303.17513439931315
3706.8074,0.8787370999702313,255.80133901137563
3707.66,0.8766536042133269,308.63197342659726
3708.515,0.873667465804106,322.7437419976273
3709.3682,0.8705628652286015,263.61276199249033
3710.2234,0.8678589906561253,326.6443453932773
3711.0771,0.8658404301070879,306.93083614480094
3711.9307,0.8647931630278589,306.24590644535743
3712.7866,0.8650925601551535,340.0380104143943
3713.6409,0.8668010302483999,325.66229319069134
3714.4973,0.8692307426574131,277.05451429266867
3715.3518,0.871074489969477,246.88824030557547
3716.2085,0.8713045642563597,298.8593844108304
3717.0635,0.8701302522360552,317.3116832711308
3717.9185,0.8694675070971363,303.70395137667487
3718.776,0.8727309952530281,369.8072919597927
3719.6313,0.8838622861358486,312.0068447452904
3720.489,0.9053819078949414,327.48601254930344
3721.345,0.93516570181617,351.53886918905255
3722.2031,0.9650750854098769,366.3352198861491
3723.0593,0.9831808297876983,316.9722927357034
3723.9158,0.9811666292251378,366.17012946713135
3724.7747,0.9597181323128806,263.5684112242058
3725.6316,0.9281414478611832,266.0160774796999
3726.4905,0.8974736255931804,338.2179366214634
3727.348,0.8747550956652769,294.4629485758897
3728.2073,0.8610786876024664,322.91611332147124
3729.065,0.8542335279482062,334.9027289116703
3729.9229,0.8513367173861207,366.60943235218184
3730.783,0.8504810866885218,295.18262793925595
3731.6414,0.8508289221490432,304.85626491370374
3732.5017,0.8520518032885314,350.6238500406157
3733.3604,0.8537819580125241,399.08445919366227
3734.2214,0.8554972656414986,371.7719940045287
3735.0803,0.8567155468316758,287.8628992037097
3735.9417,0.8572198348446135,327.08231276224654
3736.8013,0.8569597591082101,343.8481427241055
3737.661,0.8558859982652004,309.6765569380636
3738.5227,0.8539493739144567,292.59226265965606
3739.3828,0.8513371694512163,395.6594887729925
3740.245,0.8485567481141872,352.1911734464485
3741.1055,0.8462765587973887,349.7701216489186
3741.9683,0.8449344985731315,328.6325483493431
3742.829,0.8446610221799444,283.37419536725054
3743.69,0.845433687523019,345.9136120810307
3744.5532,0.847224592376429,369.39073200446774
3745.4148,0.8497212149399396,326.4462885345631
3746.2786,0.8519774167442592,360.18677394849055
3747.1404,0.8525385692653769,387.58513468338754
3748.0044,0.8504043083753886,338.8206299699802
3748.8667,0.8459991314642995,308.01277570270355
3749.729,0.8411216056890429,388.98174335344453
3750.5938,0.8377938846725161,338.8099474393596
3751.4565,0.8370044735643378,290.1967763557515
3752.3215,0.8382418001645169,305.0424640394467
3753.1848,0.8400626293647625,366.64503169591575
3754.0503,0.841001035496827,317.1588034039908
3754.9138,0.8402638051765995,305.4317794441596
3755.7776,0.838056934571899,391.6489593290553
3756.6438,0.8354001813879603,310.3923332977038
3757.508,0.8335493795152348,361.19112176834983
3758.3745,0.833203966629324,415.3976223863127
3759.239,0.8341557588323625,313.2680118417104
3760.106,0.8355315527234253,343.6445801266917
3760.971,0.8364010881379769,371.7008969240432
3761.8362,0.8362947562620627,311.24402928428316
3762.7036,0.8353073183507311,301.1658834820717
3763.5693,0.8339372664054768,345.66652016847456
3764.437,0.8327595827348888,402.0748363140791
3765.3032,0.8321304040017097,381.1181425098658
3766.1714,0.831996478224567,311.72776654417606
3767.0378,0.8319696328180074,317.3101071552004
3767.9043,0.8315717389984976,346.76718727407206
3768.7732,0.8305070519146756,319.285308871317
3769.6401,0.8288741828007185,305.0188172163574
3770.5095,0.8272087625113401,377.38580962745084
3771.377,0.8263259646782715,394.0326852983127
3772.2466,0.8268342314612261,317.25315681764107
3773.1145,0.8286737252864117,393.4224026289645
3773.9824,0.8310426867465776,351.1671359467827
3774.8528,0.832852713707326,293.61770225898925
3775.721,0.8333416636456689,307.7484670829209
3776.5918,0.8324219023211475,401.54299765886094
3777.4604,0.83050933725208,299.47044465246023
3778.3315,0.8281131972544838,343.71912467810455
3779.201,0.8255883927681298,295.06843397464945
3780.0703,0.8230494057152634,313.4759030962783
3780.942,0.8204780610836337,352.59640973052456
3781.8118,0.8178851703013864,315.4785785329382
3782.6838,0.8153926584394849,366.86541291006347
3783.554,0.8133012555159654,375.39065353731615
3784.4265,0.8119349082892234,281.3250492799617
3785.297,0.8115298134130129,399.78533567011795
3786.168,0.8121462819871438,318.75292442433556
3787.041,0.8137102472992688,408.97427469164273
3787.912,0.8159923003200932,346.94730987106567
3788.7856,0.8186035721519813,308.9430075188313
3789.6572,0.8209906099680772,349.90430255295826
3790.531,0.8226552124011004,346.53813240550147
3791.403,0.8233285479650818,299.549956505992
3792.2754,0.8230846302020025,374.6911592586326
3793.15,0.8222076300680409,405.4732893576766
3794.0225,0.8210122096091605,353.81875934468815
3794.8972,0.8197215965725062,310.97172264493213
3795.7703,0.8185025819212269,420.91442865142136
3796.6455,0.817467388753015,353.2878013892161
3797.519,0.816648417014656,336.25490378962996
3798.3926,0.8159187648876978,311.52337995554154
3799.2686,0.8150104430924802,354.8094754938478
3800.1426,0.8136413048847908,343.66386720858
3801.0188,0.8116871127856725,375.5464388090338
3801.8933,0.8093535345213863,313.70381839976653
3802.77,0.8070978938625769,358.0232909471663
3803.6448,0.8054084956189482,433.77906623807047
3804.522,0.8044838337761642,314.9223471616997
3805.3972,0.8041797308609953,369.1846880230943
3806.2727,0.8041392428298917,365.25274549995197
3807.1504,0.8040496903509259,380.04692756883225
3808.0261,0.8038441912460579,302.6556443254626
3808.9043,0.8037600672330809,398.8091091297995
3809.7805,0.8041683697673245,339.8598752482243
3810.659,0.805225784988088,347.75886231779475
3811.5356,0.806625117426762,387.3934108962482
3812.4126,0.8077491189887008,367.62634856763253
3813.2917,0.8080854455919951,334.01455602456963
3814.169,0.8075454759458889,383.48123723266053
3815.0483,0.8064303646313229,329.5147181836797
3815.926,0.8051735950268782,363.8369249258462
3816.806,0.8041002550159362,359.9595887592976
3817.684,0.8033797218635492,338.53402494082155
3818.5623,0.80304828622697,367.0749352171716
3819.4429,0.8030681982764308,413.78846927232803
3820.3215,0.8033272191159958,377.7760889470256
3821.2024,0.8036063025594952,401.61651193813896
3822.0815,0.8035749448568945,328.42341370244213
3822.963,0.8028934982267889,366.4733179556504
3823.8423,0.8014154778810697,365.1724989347009
3824.722,0.7993441918644133,326.1147250451692
3825.604,0.7971884733625936,384.1462083317638
3826.4841,0.7954902226623927,438.31287222303433
3827.3665,0.794436864570798,365.80045852932994
3828.2468,0.7937697508292934,395.1916566039705
3829.1296,0.7929787846223654,372.21631728150845
3830.0105,0.7917091497309843,423.5215242137266
3830.8916,0.7900157200605645,378.26139965659974
3831.7751,0.788333613209645,324.6960362633221
3832.6565,0.7872097800004086,364.1343629867088
3833.5403,0.786957711357417,378.4534792353143
3834.4224,0.7875218043025652,350.61617756584144
3835.3064,0.7885021862792086,357.5036490776101
3836.1887,0.7893003518321563,422.66423401995587
3837.0713,0.7893599168440232,392.02078071099584
3837.956,0.7884163717205127,381.09324357341916
3838.839,0.7866604246521656,463.5081405599813
3839.7244,0.7846325593626169,456.191692921103
3840.6077,0.7829916654884592,380.47048052303774
3841.4932,0.7822510257519194,404.6271095845282
3842.377,0.7826815820642425,427.29162471883495
3843.261,0.7842324647973898,394.078018252593
3844.1472,0.7865296728509226,358.47947958230543
3845.0315,0.7889519503382233,356.1571794707886
3845.9182,0.7909097128363284,426.89578704654264
3846.803,0.7920680659946139,392.19341313302016
3847.69,0.7925132853778829,393.2075165629596
3848.5752,0.7926487665632698,335.44510762376655
3849.4604,0.792946927178076,421.53841420720323
3850.3481,0.7936495824032701,432.47320796115895
3851.234,0.7946191345241752,382.43607884204266
3852.122,0.7954883335866625,372.6814800924203
3853.0083,0.7959701798080727,393.37199278727314
3853.8967,0.7961099750786916,336.7599744169918
3854.7832,0.7962066125400602,401.8714485850061
3855.6702,0.7965084538527398,371.8662420468982
3856.559,0.7969705633706882,402.6332985481433
3857.4463,0.7973170952533056,400.88791278501793
3858.336,0.7973355308919469,346.90242209257053
3859.2234,0.7970539829778098,351.10571289741046
3860.1135,0.796632481229973,352.7208304444092
3861.0015,0.7961617064668538,374.3368333380513
3861.8896,0.7956409732552543,407.8950469391653
3862.7803,0.7951229051103527,351.0390561657616
3863.6687,0.7947299756079838,401.93605193779365
3864.5598,0.79445703545459,401.1502875009951
3865.4487,0.7940667534720656,335.2275513923851
3866.34,0.793249112293124,364.0851657273775
3867.2297,0.791906076869385,398.6613660399117
3868.1213,0.7902110366526521,415.2756838531237
3869.0112,0.7884565613547599,352.3932132457119
3869.9014,0.7868096658960426,383.74340067254775
3870.7937,0.7852187523181319,387.5874495928635
3871.684,0.7834507995971833,440.97445536177247
3872.577,0.7811735489746707,396.78751223505645
3873.4678,0.7781530456602058,370.8525927355038
3874.361,0.7743577248466478,358.8352273970388
3875.2524,0.7700589517785938,406.2670578296241
3876.1438,0.76564214825849,458.5804023649804
3877.0376,0.7614230493060873,399.46203499356966
3877.9297,0.7575828793880351,390.31786567392624
3878.8237,0.7541923699156434,411.0758840876199
3879.716,0.7514260121700901,400.4779156629386
3880.6108,0.7494980121893859,461.4100593131366
3881.5037,0.7484960288369392,417.95917345697023
3882.3965,0.7481253874569401,383.4898164398642
3883.2917,0.747744143246978,375.25963396124985
3884.185,0.7466601735423481,418.84638515578234
3885.0808,0.7445238160159765,407.26510056716876
3885.9746,0.7415872089090265,441.1759791774018
3886.8706,0.7385469879136244,493.7913776533198
3887.765,0.7361888924789439,471.798713946944
3888.6592,0.7349539337910755,523.8151409284961
3889.556,0.7348697897583113,385.8007228997673
3890.4507,0.73573592499658,436.45684743297124
3891.348,0.7373597556562604,439.6032014096528
3892.243,0.7395981279652852,447.49915192694516
3893.1406,0.7422949396493903,455.58354781148887
3894.0361,0.7451776713375385,404.68493306820255
3894.932,0.7479948310977894,421.9309864466343
3895.83,0.750636158551152,448.21862944709886
3896.7263,0.7531502680425693,401.7799836527705
3897.625,0.7556698135252503,409.1177553842459
3898.5215,0.7581833969899805,368.7284304821611
3899.4207,0.7605074163460487,409.99464042162543
3900.3176,0.7623552532534918,402.4801649356335
3901.2148,0.7636570445513927,459.5594463369845
3902.1145,0.7647346604163254,399.89973385913345
3903.0122,0.7661771467505297,363.2845015708007
3903.912,0.768433672302159,452.02275599440827
3904.8103,0.7713905265772787,394.1053349740822
3905.7107,0.7744274454692799,360.11311333311477
3906.6094,0.7768260792889786,332.39303464033185
3907.508,0.778332607063649,464.88473446814777
3908.409,0.7792952038151719,361.8858650253652
3909.308,0.7803823647385638,348.72634727324026
3910.2097,0.7821214060811014,403.103572164958
3911.1091,0.7845158578231501,408.044357430225
3912.011,0.7870603734479815,380.04724072808034
3912.9111,0.7890489330545731,340.27659830770733
3913.8113,0.7901303765268417,368.9415397012282
3914.7136,0.7905709592038224,395.3522637859749
3915.6143,0.7910537787959652,346.11738258808487
3916.517,0.7921567833481301,345.22728088002043
3917.4182,0.7939355054554678,343.77603217132713
3918.3215,0.7959606200572827,303.88830819661337
3919.223,0.7976312991004297,372.96753837841385
3920.1245,0.7985638493985321,373.30645026177933
3921.0286,0.7987316328166463,382.7284597821557
3921.9307,0.7983889698396568,349.75525573017376
3922.835,0.7978292570634179,338.33397405467593
3923.7373,0.7971635291988824,357.7758126593507
3924.642,0.7962844660533304,389.8550963560997
3925.5452,0.7950593022393365,328.84028492939456
3926.448,0.7935186530931992,344.95793437510093
3927.3535,0.7919051852724687,405.1152153232925
3928.257,0.7905901928229515,315.4912577551707
3929.1628,0.7898868737058784,358.1979382666035
3930.0667,0.7899023587492399,354.8214163489281
3930.9731,0.7903951228272382,357.5884949920325
3931.8774,0.7908142569147543,341.09250989889574
3932.782,0.7905846119776679,441.12564698222155
