wavl,flux,ivar
3566.9744,41.582425897479716,8.269798544111415
3567.795,41.490963228105365,8.284511477489975
3568.6177,41.39108357251499,8.31235726247142
3569.4385,41.28769615929999,8.412751821471069
3570.2617,41.186522183572926,8.414895775825746
3571.083,41.09854918885891,8.137253577334956
3571.9065,41.03639234691342,8.477372401788664
3572.7283,41.00970590864736,8.465257012087838
3573.55,41.01766044609119,8.633871616105942
3574.374,41.04866447498066,8.412598674274701
3575.1963,41.08494627073051,8.24039872061428
3576.0208,41.1103839416976,8.109268028677127
3576.8435,41.11505967048529,8.67206962583155
3577.6682,41.097350338014806,8.489875612333291
3578.4915,41.062964956649,8.414526674543804
3579.3145,41.021496380658526,8.45266443506548
3580.14,40.98071269303682,8.343135799814288
3580.9636,40.941775205300296,8.303124891724227
3581.7893,40.89777570856988,8.579446573125255
3582.6133,40.83967272604608,8.54694033470739
3583.4395,40.76278934835576,8.55003411723405
3584.264,40.67177569540141,8.464830403861678
3585.0884,40.57658514953698,8.712071308661363
3585.915,40.48555166651433,8.850526485809636
3586.74,40.40033664208759,8.719220004176554
3587.5671,40.31465415633771,8.827633086971462
3588.3923,40.221533645134706,8.910406087843663
3589.22,40.11732214001032,8.936730317432284
3590.0457,40.00560731081142,8.795067596538988
3590.8716,39.89324095202296,8.986690987149824
3591.6995,39.787543895112954,9.11936297690155
3592.526,39.69392877437731,8.73237416253283
3593.3542,39.61331096698162,9.119659298964097
3594.181,39.544184616473004,9.014947215698275
3595.0098,39.48215389968152,8.949391441310475
3595.8367,39.42213986415672,9.427869638735874
3596.6638,39.3590853768156,9.151568209219962
3597.4934,39.29185405066539,8.950694247233054
3598.3208,39.22663146496167,9.191636672883101
3599.1506,39.17421869450388,9.34139563360334
3599.9788,39.14526342535233,9.293670886854017
3600.8088,39.143131541266754,9.288426231580036
3601.6372,39.16323331691248,9.174134331094054
3602.4678,39.19673160362036,8.858358535701013
3603.2964,39.234549803415476,9.11542754234209
3604.1252,39.26925819721421,9.256465187478236
3604.9565,39.294043569018534,9.139689758013334
3605.786,39.302368727077514,9.154944519497658
3606.6172,39.289613120532756,9.005449788593726
3607.447,39.25447072915614,8.864046327013792
3608.2788,39.19920035417843,9.15462206493455
3609.109,39.12906359912948,9.19593765654329
3609.9392,39.0492209852286,9.093571273348715
3610.7717,38.9628923093038,9.776813623252616
3611.6023,38.87207000783659,9.56181409372012
3612.435,38.778286781725335,9.440027768432374
3613.266,38.686580797701,9.572054683975239
3614.0994,38.60289434112065,9.577934404441814
3614.9307,38.53172047758309,9.702089193090554
3615.7625,38.47097625380093,9.657068283177157
3616.5962,38.413381090551574,9.365484801821767
3617.4282,38.351605508899645,9.510790481065575
3618.2625,38.28304103658689,9.675231907981718
3619.0947,38.212870702951705,9.926336670668423
3619.9292,38.149377018228634,9.821570117219576
3620.762,38.09926293348932,9.445843842521388
3621.595,38.06274802474159,10.32591773570532
3622.4302,38.03500731052826,9.85245605579455
3623.2634,38.00989730533737,9.945650742187889
3624.0989,37.9820276997123,9.909171152059377
3624.9326,37.9475484501023,9.778441788613772
3625.7686,37.903775270297864,10.498952150705197
3626.6028,37.85175230505337,9.904803650071823
3627.437,37.79738778395151,9.827846079155467
3628.2734,37.750123088972295,10.36565046271074
3629.1082,37.71786069927621,10.078630124548585
3629.945,37.70038033539247,10.078179734448309
3630.78,37.68845461531826,10.196681690714282
3631.6174,37.66798694095823,9.824117370868718
3632.453,37.627940532727116,10.165571709218554
3633.2883,37.5652001064481,9.94329829970777
3634.1262,37.48446186594576,10.149063238950008
3634.9622,37.39545007342884,10.065344584121057
3635.8005,37.30717671645612,10.131131414382281
3636.637,37.22691521440249,10.28364498736979
3637.4756,37.15716053758178,10.45567977138509
3638.3123,37.097180226364614,10.24621221194023
3639.1492,37.04305263761556,10.542178096468227
3639.9885,36.99061650138175,10.298017848238716
3640.826,36.938042763194865,10.646345247137141
3641.6653,36.885590830888084,10.361877648882794
3642.5032,36.83534662966217,10.53986307035606
3643.343,36.78831393560046,10.971400592844073
3644.1812,36.744043057324944,10.878665919939923
3645.0195,36.70024334119648,10.249347250501902
3645.86,36.65432106048202,10.59073899434472
3646.699,36.6049543395983,10.946501854582841
3647.5398,36.55242555670865,10.404427522222088
3648.379,36.500084878788414,10.713565925022795
3649.2202,36.45252409776673,10.941492281200606
3650.0596,36.41360128024768,10.55915447408304
3650.8994,36.38269195734262,10.631360949715436
3651.7412,36.35532991003996,10.75245268240571
3652.5813,36.327139063222965,10.871857989093074
3653.4236,36.2978008815736,10.837186290991422
3654.2642,36.272236495909276,10.965878404631297
3655.1067,36.25624036066975,10.962305510774677
3655.9475,36.252047209049316,11.178502435688747
3656.7886,36.25663247109908,10.7831150542237
3657.6318,36.26451919067477,10.909326214995916
3658.4734,36.271179672852355,10.925150256333138
3659.317,36.27485672774633,11.099252824217743
3660.1587,36.27649258902152,10.786856122069146
3661.003,36.27915137173317,10.92771525397179
3661.845,36.286230241067706,11.153064247203288
3662.6875,36.29853602141168,10.803686856017894
3663.532,36.312083835054146,10.800684656892447
3664.3748,36.31895262251922,10.653337753745319
3665.2197,36.31121414222207,10.454368972869906
3666.063,36.28466258019734,10.640138059460613
3666.9084,36.24033336350142,10.562012503892891
3667.752,36.184608023515175,11.212645501091389
3668.5977,36.12613393204048,11.198517345093068
3669.4417,36.0725524237434,11.32542280509536
3670.286,36.02492151557862,11.115295730769178
3671.132,35.97695464398529,11.07168421380642
3671.9768,35.91979822333967,10.951775205316297
3672.8235,35.84886342658227,11.187311222178291
3673.6685,35.76939021688247,11.466057076028044
3674.5156,35.693150380910325,11.289787446008123
3675.3608,35.632628109568365,11.567895792070352
3676.2063,35.59244770914295,11.581926154640238
3677.0542,35.56721724479314,11.521073720596183
3677.9,35.54455364648997,10.992599294845897
3678.748,35.5117631204039,11.030398253546014
3679.5945,35.4631161060607,11.472222913884938
3680.4429,35.401038516315914,11.216272589789279
3681.2896,35.333632220050006,11.434026045212
3682.1365,35.268965842779785,11.46535786019088
3682.9856,35.21261338295944,11.615873813960341
3683.8328,35.167317458050306,11.354632728708474
3684.6824,35.13226888565936,11.77707613105775
3685.53,35.105046920507085,11.02411424519169
3686.38,35.08332007740516,11.356555875584025
3687.2278,35.06798689077381,11.668007563696817
3688.0762,35.0625625381596,11.682105532702824
3688.9265,35.06968336263762,11.718945020880847
3689.7751,35.086829366976936,11.359542135144927
3690.626,35.10612642369931,11.550886954954363
3691.475,35.117888429332666,11.44650225333239
3692.3264,35.11529557950599,11.311056844331425
3693.1758,35.09616038163611,11.270614184683808
3694.0254,35.062165083923944,11.615842686517787
3694.8772,35.01695924970704,11.63806071288892
3695.7273,34.96518830572711,11.907958404643793
3696.5793,34.91097740397222,11.918629410180696
3697.43,34.858122031702685,11.425719757530734
3698.2825,34.80793250359767,11.783961077621841
3699.1333,34.75848646514004,11.673004677049855
3699.9841,34.703857678079174,11.839626377772486
3700.8374,34.63723320431925,12.055668722364123
3701.6887,34.55613769002765,11.942114974997713
3702.5425,34.46405893932087,11.844526416519429
3703.3943,34.370900343203296,12.235624036828776
3704.2483,34.28664947966171,12.188971658654204
3705.1003,34.21815542227901,12.011204665651574
3705.9526,34.165034929569536,12.16763682992544
3706.8074,34.121069378838236,12.632276162263468
3707.66,34.0776716675532,12.289248794289291
3708.515,34.0275739917684,12.034303010639418
3709.3682,33.969497843709284,12.594117428037187
3710.2234,33.90774374191931,12.582834467804487
3711.0771,33.84982412918823,12.649095967152899
3711.9307,33.800606322031584,12.437426238474014
3712.7866,33.7598390007501,12.769687848137036
3713.6409,33.72400219812155,12.252290003303546
3714.4973,33.68962010040762,12.838047285790523
3715.3518,33.656740792632014,12.69328473753937
3716.2085,33.62767747401876,12.455155823496929
3717.0635,33.604809322351336,12.366702166305272
3717.9185,33.587891923208225,12.59344486354834
3718.776,33.574286641826845,12.49908726164379
3719.6313,33.560327844667924,12.413210457897483
3720.489,33.541754035423416,12.753236780550402
3721.345,33.513796661490765,12.661402615850527
3722.2031,33.471317195477766,12.848249411335258
3723.0593,33.41174218104151,12.536821389801272
3723.9158,33.33705076277844,12.97774173055151
3724.7747,33.25419814749832,12.727271588233693
3725.6316,33.17301054754748,13.45270334613121
3726.4905,33.100502682569996,13.003160625088592
3727.348,33.039097274858456,13.01883430163811
3728.2073,32.98472437026767,13.330554273103681
3729.065,32.93009953100188,12.882326659809445
3729.9229,32.86852620812181,13.06461230694175
3730.783,32.798712452830934,13.326972435392545
3731.6414,32.72631683245018,13.07982241126948
3732.5017,32.65918442764675,13.441468388564223
3733.3604,32.60294144904274,13.4262709966311
3734.2214,32.556795303377264,13.356161126915921
3735.0803,32.51596394996077,13.614431250781672
3735.9417,32.47456920592931,13.453000112778248
3736.8013,32.42957509510426,13.375370684795882
3737.661,32.38054327713951,13.9055589364496
3738.5227,32.328690391339734,13.56601722059667
3739.3828,32.27631534878879,13.68709311264762
3740.245,32.225727737950294,13.743522718587966
3741.1055,32.17996336148749,13.646015636274713
3741.9683,32.14101361153144,13.964426396962192
3742.829,32.10986496202398,13.952003262746205
3743.69,32.08588485921607,13.641417179942817
3744.5532,32.06816693870129,13.803302721472617
3745.4148,32.05637407274739,13.999497770395354
3746.2786,32.0502435302527,13.977179773727334
3747.1404,32.04886905721637,13.989508241519362
3748.0044,32.04972255543477,13.906141622938737
3748.8667,32.048693439367796,13.903483068064197
3749.729,32.04130443964095,14.045843235977058
3750.5938,32.02465085027223,13.928492899413495
3751.4565,31.999011162624566,13.48791371168955
3752.3215,31.96714035899266,14.241915070694082
3753.1848,31.93295492189623,14.062458670785952
3754.0503,31.89935423384133,13.754852289163598
3754.9138,31.868009084368257,14.62211331913949
3755.7776,31.838331540535123,13.830818834382582
3756.6438,31.807410509841564,14.039517034243977
3757.508,31.770865338646004,14.258184529859149
3758.3745,31.724386506142523,14.178779444829711
3759.239,31.667080571381405,13.861339865627818
3760.106,31.601604468204624,13.92270506773562
3760.971,31.533789737925083,14.560921066090447
3761.8362,31.46876105553147,14.360918825551924
3762.7036,31.409717060346534,14.471474603443788
3763.5693,31.35823764711549,14.281609261841682
3764.437,31.313827572708384,14.88666785148634
3765.3032,31.274763143716275,14.921091592453314
3766.1714,31.237577764248616,14.657300264354086
3767.0378,31.199122118501425,14.70924950446363
3767.9043,31.157932991029355,14.37431906367507
3768.7732,31.11514718820973,14.598064233116588
3769.6401,31.073686991718187,14.712039875463356
3770.5095,31.03531776720661,14.982987729611976
3771.377,31.000194842124987,14.744483348514372
3772.2466,30.96703064847126,15.066431744049678
3773.1145,30.936220111240463,14.99885402918992
3773.9824,30.91081055299872,15.353358614806274
3774.8528,30.895592791644294,14.677154553601337
3775.721,30.894255699786978,14.825601353721792
3776.5918,30.90689986422098,14.830605306332009
3777.4604,30.929554297840788,14.87447050056133
3778.3315,30.955136824743008,14.851649383156072
3779.201,30.974748786246767,14.490116829843686
3780.0703,30.98108622661418,14.680375609575512
3780.942,30.971690693359726,14.986738230620839
3781.8118,30.950550657824873,14.852551984675452
3782.6838,30.92530525147427,15.508595566865019
3783.554,30.90233562347926,14.813773569224645
3784.4265,30.8824124668031,14.62586420612889
3785.297,30.861244344576992,15.246944009776946
3786.168,30.832603475226527,15.361055058540014
3787.041,30.792367242823314,15.077578808004313
3787.912,30.740757817741734,15.30462921950642
3788.7856,30.68096571090287,15.028717587806904
3789.6572,30.61827283281989,15.190432118192346
3790.531,30.55725068182616,15.238331740489796
3791.403,30.50173900408234,15.36590978465815
3792.2754,30.45276370041325,15.541014247963737
3793.15,30.4081017498717,15.380763968087981
3794.0225,30.362968120730788,15.42658066704963
3794.8972,30.31184879340233,15.422102388182791
3795.7703,30.253008842612008,15.392407825227528
3796.6455,30.189423284515776,15.88232275396179
3797.519,30.127957433785312,15.366745625278313
3798.3926,30.07402445049946,16.2422289364053
3799.2686,30.028635951338458,15.786212131211494
3800.1426,29.98890581453252,15.887188371841052
3801.0188,29.950229103701943,15.878090640167125
3801.8933,29.91010964627874,16.067511396173114
3802.77,29.86881315403723,16.23902461130987
3803.6448,29.830105059133217,16.064355894918894
3804.522,29.799651278137492,16.0685792031325
3805.3972,29.7835185026461,16.184951293709492
3806.2727,29.784170692086978,16.387410268490164
3807.1504,29.798373171940188,15.866658370075015
3808.0261,29.817849571541426,16.048460676785695
3808.9043,29.833542830735905,16.013190597766304
3809.7805,29.839270081601228,15.880543682586254
3810.659,29.833180546021325,16.06808078606209
3811.5356,29.81625526007026,15.887982848402267
3812.4126,29.790408768156365,15.894248230444246
3813.2917,29.757692879411604,15.637230005817274
3814.169,29.720717224323913,16.218083337423547
3815.0483,29.6818405708588,16.356578203224437
3815.926,29.642781135476113,16.101086172638077
3816.806,29.602896284571855,16.615572859812566
3817.684,29.559989331706372,16.573597443665168
3818.5623,29.51125986722351,15.678369018954308
3819.4429,29.45559246959707,16.610257492295776
3820.3215,29.39534170054028,16.607963477860633
3821.2024,29.334723138758406,16.7827153696063
3822.0815,29.27869441628209,16.219199360315425
3822.963,29.22962316521889,16.76862524864106
3823.8423,29.187333094372484,16.847389093052826
3824.722,29.148981029139424,16.54009269355609
3825.604,29.110977008489883,16.862795702939014
3826.4841,29.07063506716971,16.749804253264834
3827.3665,29.026327505014677,17.36341742555369
3828.2468,28.978438960848226,16.812639815948845
3829.1296,28.928061792430057,16.531877055562806
3830.0105,28.876971638826873,17.018617570740183
3830.8916,28.825872424857614,17.259218768270202
3831.7751,28.774686502472235,17.183123201526378
3832.6565,28.72376941093315,17.296621485369
3833.5403,28.67385490093332,17.091423831999162
3834.4224,28.627202081221697,17.594937857625705
3835.3064,28.58617298558117,17.83460099486961
3836.1887,28.553590747439042,17.844554198966538
3837.0713,28.53186977412851,17.373558838571697
3837.956,28.52276889016336,17.621357268129593
3838.839,28.526197676218512,17.861021564331363
3839.7244,28.539158075126345,17.526675202566217
3840.6077,28.555797455563464,17.160901407400804
3841.4932,28.569132032792638,17.638189956367334
3842.377,28.573550436621016,17.248161391265683
3843.261,28.567779349396478,17.82934782494245
3844.1472,28.55542058295321,17.6617359827775
3845.0315,28.54244654336013,17.473527317448003
3845.9182,28.53236021484384,18.241909743696763
3846.803,28.523626304602864,17.406702140357183
3847.69,28.511061903808162,17.218860097428262
3848.5752,28.49042560427826,17.656806683282245
3849.4604,28.46125790581166,17.54993771152097
3850.3481,28.426335475917924,17.659948726507306
3851.234,28.38953165107892,17.29257927655953
3852.122,28.35354764089429,17.774642939273704
3853.0083,28.320695072596266,17.35277819713751
3853.8967,28.29258013806,17.67682045724558
3854.7832,28.269784409298254,17.863646118603373
3855.6702,28.249726808547248,18.142217734728632
3856.559,28.226926409730126,17.63779326315839
3857.4463,28.19608313145232,17.420828147700693
3858.336,28.155713070977853,17.988591428487048
3859.2234,28.110111524964676,18.167700869373927
3860.1135,28.065804800445658,18.222925532027908
3861.0015,28.02803920029264,17.908439735221787
3861.8896,27.997598098906945,18.059461936391024
3862.7803,27.97245428794709,18.238797398174693
3863.6687,27.950791050375916,18.27406773942918
3864.5598,27.9321680198264,18.25272841827171
3865.4487,27.916895021068786,18.309336027551744
3866.34,27.90334121672467,17.984513072189518
3867.2297,27.887685899489398,18.49839907294535
3868.1213,27.865880027348563,17.953285386948313
3869.0112,27.836990058649647,18.35577868154477
3869.9014,27.803618612370833,18.59999112269894
3870.7937,27.76972794719278,18.405116896947384
3871.684,27.737882499747588,18.91073653480932
3872.577,27.70739451222864,18.368950023495845
3873.4678,27.675819888503906,18.586216858878426
3874.361,27.64029540049526,18.734213122637744
3875.2524,27.600036889923246,19.128008303111354
3876.1438,27.55645587441249,18.479609836302775
3877.0376,27.51220232074462,18.732503262837948
3877.9297,27.469124206713097,18.867258410629493
3878.8237,27.425881945024216,19.019206895856776
3879.716,27.379315579282906,18.91334011565057
3880.6108,27.325953279560288,18.77316643676492
3881.5037,27.264907543919673,18.559061335662115
3882.3965,27.19760581000225,19.57433735345549
3883.2917,27.12738540243444,19.438186079792157
3884.185,27.058820575427003,19.62695402765387
3885.0808,26.99516257257904,19.682812591619655
3885.9746,26.938840642996688,19.69404324687039
3886.8706,26.890337103892875,19.8636072510923
3887.765,26.84993686104084,19.94967722275877
3888.6592,26.817490579974848,19.789802940727167
3889.556,26.79271198216362,20.227501170044228
3890.4507,26.77506679526336,19.747320277976343
3891.348,26.763720190749712,20.415812666238484
3892.243,26.75876496214545,19.58538620748551
3893.1406,26.761375987519386,19.632001411248055
3894.0361,26.773098172688137,20.56788083275553
3894.932,26.794462731107014,19.69103292303974
3895.83,26.824273810348114,19.747364899569646
3896.7263,26.859605368441173,19.911817755973495
3897.625,26.897391799385257,19.326915287859897
3898.5215,26.934880039816022,19.84049740131638
3899.4207,26.97094729644129,19.881459563206047
3900.3176,27.005094002878053,19.75516600855
3901.2148,27.037611578065306,19.464857990518947
3902.1145,27.069096414996128,19.5996583598839
3903.0122,27.100360785409237,19.569349053100705
3903.912,27.132655372603992,19.634521575243507
3904.8103,27.16618793637023,19.257017164845653
3905.7107,27.1999977061045,19.37813032844204
3906.6094,27.231667726163064,19.693793017210872
3907.508,27.25894275906103,18.822137456655813
3908.409,27.280482307314912,19.390641359451386
3909.308,27.295843997805957,18.860308181152966
3910.2097,27.30518494461938,19.302566183363773
3911.1091,27.30856122411402,19.255450809252896
3912.011,27.306388421159923,19.369784962003436
3912.9111,27.29976660016626,19.23141238654444
3913.8113,27.29007002448561,18.982458735768123
3914.7136,27.277742093406527,19.50238014329561
3915.6143,27.261735873636926,19.063591490003716
3916.517,27.240147496318695,18.659288356868075
3917.4182,27.212404326037806,19.107856139502605
3918.3215,27.180224893588385,19.142713229989713
3919.223,27.147631193124255,19.36357287667304
3920.1245,27.118350414817492,19.42114946530576
3921.0286,27.0937969406965,19.631295199310983
3921.9307,27.07241567135593,19.274333978415747
3922.835,27.050433710287425,19.77458753232005
3923.7373,27.024561085344804,19.200345408013618
3924.642,26.993549814765192,19.63553399234872
3925.5452,26.959358782964586,19.82995964908617
3926.448,26.92552039562999,19.8890133538147
3927.3535,26.894885709106234,19.580407265817435
3928.257,26.86796088159389,19.180654269525824
3929.1628,26.842102165832245,19.76702338969328
3930.0667,26.813363208625944,20.179277485038128
3930.9731,26.777860537589824,19.822536523610694
3931.8774,26.73430669613705,19.754575571414865
3932.782,26.684822463810377,20.098654736625985
3933.6887,26.635103682435762,20.601899155657442
3934.5938,26.59230195914464,20.1611153608004
3935.501,26.56053915759872,20.318608756335102
