wavl,flux,ivar
3566.9744,1.2181511766996935,870.0344104947326
3567.795,1.2146542090722316,734.0568435895559
3568.6177,1.2114026968124887,1028.8115746522135
3569.4385,1.2087597609050278,892.8479438093025
3570.2617,1.2066262468474185,902.3202275784424
3571.083,1.2048310849720298,935.7182717305484
3571.9065,1.2031998950237621,775.8223821288664
3572.7283,1.201432574359945,862.0818934792113
3573.55,1.1989803499454084,834.3352685648904
3574.374,1.1952910594961808,1052.848736119163
3575.1963,1.1903315906823462,887.9075694174131
3576.0208,1.1848767443227892,961.6537437957588
3576.8435,1.180462984483352,1242.4078850683434
3577.6682,1.1786286230897474,933.3785706017759
3578.4915,1.180101585971444,977.8265468788736
3579.3145,1.1842123479711648,876.5981758863329
3580.14,1.1891364874853336,831.0486516003746
3580.9636,1.192734559589896,861.0260238027289
3581.7893,1.193665936809365,743.8580217531072
3582.6133,1.1917984015162149,1085.1314414325939
3583.4395,1.1879219580962221,1007.1344801634941
3584.264,1.1831738202186846,808.8835494744403
3585.0884,1.1785641074568363,1017.3161557121629
3585.915,1.1747947294512153,1048.0561278407724
3586.74,1.172138078543939,977.8536200744055
3587.5671,1.170333187224003,985.7523949480355
3588.3923,1.1688701447485064,971.4478764616591
3589.22,1.167344161916906,824.3920569342266
3590.0457,1.1657186143128833,892.0262163158675
3590.8716,1.1642129417353786,1078.8520671567348
3591.6995,1.1630973149459298,1075.10336027832
3592.526,1.1625642041013011,1004.5492639759374
3593.3542,1.1626945420099195,921.0889708983511
3594.181,1.1634311609182733,1048.599720833215
3595.0098,1.1644939203862446,942.1478100044795
3595.8367,1.1653867829808067,961.8962953192084
3596.6638,1.165666457879998,771.3779653547809
3597.4934,1.165235989529004,1151.640981022132
3598.3208,1.1643855998093613,945.5889338977286
3599.1506,1.16350040304475,907.6523341298547
3599.9788,1.1628041453823754,800.6917236543909
3600.8088,1.162324542555264,1099.4712003744062
3601.6372,1.1620260964700677,1003.2147828503568
3602.4678,1.1618790994709032,860.9711179663574
3603.2964,1.1619084243837265,957.3185870587441
3604.1252,1.1622145219600932,956.640473110848
3604.9565,1.1628435886605792,996.076980253565
3605.786,1.1634702149672567,923.0638637524316
3606.6172,1.1632738961118259,1045.6669950509486
3607.447,1.1613353703076383,934.2069458244218
3608.2788,1.1573562544684544,984.9722019535099
3609.109,1.152095613769052,1014.4111916470839
3609.9392,1.1469869935172712,919.3449784383456
3610.7717,1.1433816480635968,1043.9685351656317
3611.6023,1.141926946065431,940.2788767303196
3612.435,1.1423620484796626,1054.9237153314687
3613.266,1.1438330937259797,944.189996776156
3614.0994,1.1453432984960608,966.1315765822966
3614.9307,1.1461399904075682,905.9882619067808
3615.7625,1.1459985339288477,937.8422537619558
3616.5962,1.1452799738385597,1027.165727577653
3617.4282,1.1447695034797323,975.9700085172306
3618.2625,1.145195602083962,1040.5093870439496
3619.0947,1.1466549368146437,926.685121326089
3619.9292,1.148387637659644,887.4764779497352
3620.762,1.1491761296145075,996.6565957435841
3621.595,1.148181610178331,1078.9349580352052
3622.4302,1.1454477004465107,897.8229685082573
3623.2634,1.141757437934737,1037.807158244277
3624.0989,1.137911427718484,1071.9245189410155
3624.9326,1.1342672563285796,1091.5938826556078
3625.7686,1.130750890174753,1060.0129643762818
3626.6028,1.1274444329061326,1029.0816058129008
3627.437,1.1248364257775096,1092.8265571052536
3628.2734,1.1235249256275062,988.4775112343909
3629.1082,1.1235690400067697,1059.8941008437794
3629.945,1.124177793920653,1048.9948691269724
3630.78,1.1241036075394275,906.1539662910587
3631.6174,1.1224135311250925,946.4269442557019
3632.453,1.1191140390664063,982.654370266317
3633.2883,1.1151782356362065,1084.8861360537187
3634.1262,1.112009983009482,1113.5487134345015
3634.9622,1.1107138200576867,1132.9129673641103
3635.8005,1.1115577107399874,1057.5203354376663
3636.637,1.114012864619524,1058.8049242022848
3637.4756,1.1171161118471393,954.982721205858
3638.3123,1.1198376246655988,927.7558711963674
3639.1492,1.1214546517996804,1089.7376175962393
3639.9885,1.1217353015887712,1019.7027537723827
3640.826,1.1209728415225024,967.9276474989086
3641.6653,1.1197279493444319,1074.2630302555503
3642.5032,1.1184072681373085,1099.3205010787906
3643.343,1.11699583655547,1129.2026152205806
3644.1812,1.1152562220766804,895.353687140497
3645.0195,1.1131440307959795,1147.7271903646003
3645.86,1.1110619445009822,1272.5435424956042
3646.699,1.1096901088459408,1254.6719352060093
3647.5398,1.1095203041868928,1208.603168759085
3648.379,1.1105569462516833,1118.633461735949
3649.2202,1.112319573953636,1018.4429666211114
3650.0596,1.1141090242736187,1050.4973952217515
3650.8994,1.1153976847659561,1082.5675533829535
3651.7412,1.1160420364748178,1038.8214520425454
3652.5813,1.1162658422149552,1015.695270069398
3653.4236,1.1164268906700572,962.8964649144028
3654.2642,1.1167276032179236,1131.4201462586982
3655.1067,1.1171203517487494,920.12709782405
3655.9475,1.117461957498595,1074.0494915654085
3656.7886,1.1177561623606533,974.1819801412206
3657.6318,1.1181973327898613,1039.1730477347976
3658.4734,1.1189622299372355,1024.5468224096016
3659.317,1.1199684872325568,1015.7498980633785
3660.1587,1.1208050286377087,1040.132226789098
3661.003,1.1209259822240343,1064.3414333825401
3661.845,1.119925133750277,1055.123904330069
3662.6875,1.1177593052194978,903.1723293206138
3663.532,1.1147857455701227,1221.991794090735
3664.3748,1.1116426510987805,1047.7354009534265
3665.2197,1.1089325001606838,934.3399646712514
3666.063,1.1070248510425376,1157.2613182353398
3666.9084,1.1059239128526335,995.5879261977618
3667.752,1.105416238577392,1087.3889225014113
3668.5977,1.1052591530101683,965.2956029259688
3669.4417,1.1053354365832766,1041.365747727937
3670.286,1.105628699452999,1113.3177498439723
3671.132,1.106103824792047,1054.5099338114064
3671.9768,1.1066144346907754,1074.8461050883716
3672.8235,1.1069492630069067,1089.3988745761617
3673.6685,1.1069709954255467,1061.4456585629473
3674.5156,1.1067527447795587,1039.2289350273622
3675.3608,1.106569448906068,988.0039626420034
3676.2063,1.106714202523763,1222.0612628616193
3677.0542,1.1072539271226385,985.0580609515017
3677.9,1.1078938680297985,896.1432754232054
3678.748,1.1081281276236092,1043.523196261104
3679.5945,1.1075914066818848,1166.6042999770018
3680.4429,1.1063621728511543,890.7783266401235
3681.2896,1.104910679751691,1102.253453613304
3682.1365,1.1036745446439022,1229.564198217095
3682.9856,1.1027046395186428,999.2688081032022
3683.8328,1.1017441927815348,1014.2579617545988
3684.6824,1.1006334236472513,1165.2022916418807
3685.53,1.0995864655638834,1016.7152399747933
3686.38,1.0989415401897553,1096.1584963603832
3687.2278,1.0987511329111963,1017.1235016646337
3688.0762,1.0986620232510107,1064.0183119540195
3688.9265,1.0982353035275634,1062.1215948817296
3689.7751,1.0973152277467928,1032.4296099141168
3690.626,1.0961004825473006,1096.6100553052045
3691.475,1.0949730725650786,1088.7489341547086
3692.3264,1.0942524630895563,1081.7513309898452
3693.1758,1.094079132326131,1258.8948289694001
3694.0254,1.0943483692724296,1188.5215369229552
3694.8772,1.094713205817255,1344.6723449523654
3695.7273,1.0946593624622565,1083.2941676366563
3696.5793,1.0937481298961165,1109.4112694998084
3697.43,1.091953371714564,1001.5437089999174
3698.2825,1.089810149907509,985.3935950371441
3699.1333,1.088186161511099,1140.2259365775985
3699.9841,1.0876862822670492,1151.6262660076252
3700.8374,1.0882331415227657,1149.8224260569505
3701.6887,1.0890841270793086,1070.108953991252
3702.5425,1.0892842175612867,991.4587364261083
3703.3943,1.0881713525871588,1114.2575386894775
3704.2483,1.0856421977406043,1108.082184094253
3705.1003,1.0821035493197046,1220.222788409479
3705.9526,1.078146636376473,1135.596065649765
3706.8074,1.0742861394731333,1029.439792328645
3707.66,1.0709131484254646,1163.2797874143453
3708.515,1.068312395211113,1275.3478542121554
3709.3682,1.066794880371543,1204.3882025575592
3710.2234,1.0665369714218975,1222.4504365392777
3711.0771,1.0673890725378603,1057.8984792169801
3711.9307,1.0687713460403,1152.6425420417088
3712.7866,1.06987059739725,1156.2621261062218
3713.6409,1.0700069893360664,1366.8367931712141
3714.4973,1.0689645254808922,1358.1946768515447
3715.3518,1.0670318154120462,1251.1759512871604
3716.2085,1.0647625632770183,1156.8836538400385
3717.0635,1.062698251363919,1147.6182961019651
3717.9185,1.0611041255799945,1165.0718933560956
3718.776,1.0599054950871243,1066.2774582993893
3719.6313,1.0587889145577993,1125.450797165349
3720.489,1.0574281176760436,1229.0276770554267
3721.345,1.055775107630766,1175.5428183632043
3722.2031,1.0541099187201903,1192.1462489887513
3723.0593,1.0528684890538385,1262.0276268298696
3723.9158,1.0522973977967427,1428.690941404077
3724.7747,1.052293315918868,1190.2967454858874
3725.6316,1.0524710264716177,1163.8546942436237
3726.4905,1.0524006221557523,1088.563496337414
3727.348,1.0518405889927893,1151.5537826018606
3728.2073,1.0508438980577053,1247.0663486389433
3729.065,1.049701348677616,1185.7124469885516
3729.9229,1.04870538234996,1214.8291948609751
3730.783,1.0479227910482445,1239.494219608199
3731.6414,1.0471767355645147,1251.665363271237
3732.5017,1.0462876965813395,1203.395870083727
3733.3604,1.0453567966964752,1242.0455702576173
3734.2214,1.0447018605500786,1216.914741097091
3735.0803,1.0445314320937829,1141.8400751441652
3735.9417,1.0446921315217768,1105.5319227959856
3736.8013,1.0447946480384736,1125.491281720651
3737.661,1.0445209414233803,1087.905415115031
3738.5227,1.0437725003993494,1220.5619319130817
3739.3828,1.0425932851327229,1183.026479275807
3740.245,1.0410249257597521,1148.7367464548624
3741.1055,1.03911914335451,1216.817412313903
3741.9683,1.0369737384336593,1182.7010409539603
3742.829,1.0347673982407004,1414.394772896699
3743.69,1.0326407800076283,1343.4380765542053
3744.5532,1.0306919268935162,1177.8322129116007
3745.4148,1.0290958286550866,1196.943815213814
3746.2786,1.0281247041755883,1234.8113349776509
3747.1404,1.0279837026965535,1186.048611166397
3748.0044,1.0285008231195407,1272.908295907241
3748.8667,1.0291141434679631,1310.935755643343
3749.729,1.029264191924685,1247.2645874426698
3750.5938,1.0288264821561244,1222.2583112451573
3751.4565,1.0281395161688238,1280.822803699152
3752.3215,1.0275735434016837,1236.7956005131944
3753.1848,1.027144519621962,1267.2911038804016
3754.0503,1.026568053935917,1343.1957963672216
3754.9138,1.0256700762848106,1230.3997421133854
3755.7776,1.0246073583743596,1105.2736072122984
3756.6438,1.0236896923776633,1253.188981072431
3757.508,1.0230904206697191,1227.9160608043967
3758.3745,1.0228028830539067,1354.2385561492742
3759.239,1.0228572310543338,1226.1633187567936
3760.106,1.023396661203354,1120.0064022881147
3760.971,1.0244641707160669,1328.5311159813966
3761.8362,1.0257465479249783,1186.3784224282613
3762.7036,1.0266010668024599,1264.5637479152217
3763.5693,1.026426738198745,1266.3924598046326
3764.437,1.0250958880160563,1232.6590214198693
3765.3032,1.0230546674481222,1332.815657222936
3766.1714,1.0209915078167333,1157.4272036421494
3767.0378,1.0194054345423245,1148.2726173492827
3767.9043,1.0183399788206409,1238.4920644811746
3768.7732,1.0175136736414905,1191.1493721486725
3769.6401,1.0166231909270147,1430.1982117701873
3770.5095,1.0155651047367569,1423.9451232234387
3771.377,1.0145123287541236,1182.9371561347823
3772.2466,1.0137907170569442,1100.306286758607
3773.1145,1.0136850715397683,1357.398610652725
3773.9824,1.014191934125573,1229.3487756666798
3774.8528,1.0149420182565199,1343.1162571942514
3775.721,1.015397101804853,1240.9537592989836
3776.5918,1.0152673995930837,1532.880041253868
3777.4604,1.0147533678239526,1309.3386158572937
3778.3315,1.01439345572692,1257.1416331518224
3779.201,1.0146666407219098,1318.0537017676977
3780.0703,1.0156877720667332,1176.2813041450781
3780.942,1.0172060654684199,1217.4563689314932
3781.8118,1.0187795014990308,1308.605091828454
3782.6838,1.0200005518237019,1238.2499569121533
3783.554,1.0205463217785984,1290.590396194932
3784.4265,1.0201541206654987,1270.5804482516846
3785.297,1.0186064697384174,1284.2732512617533
3786.168,1.0158676863771559,1158.6003156020554
3787.041,1.0122389069830235,1272.4789816290322
3787.912,1.0083607414266158,1221.7407925051125
3788.7856,1.004895000079354,1411.6921353180905
3789.6572,1.002307329246903,1345.4583630169986
3790.531,1.0006599344154905,1193.7680780579656
3791.403,0.9996909909506476,1244.537345955044
3792.2754,0.9989411396680797,1531.1930445584187
3793.15,0.9979964230110093,1349.8623462738435
3794.0225,0.9967093255638023,1395.493003266736
3794.8972,0.9952780191209745,1383.6806428280547
3795.7703,0.9941721891573483,1318.796505946402
3796.6455,0.9938493637781736,1285.8991990582845
3797.519,0.9944677136440213,1337.4799744392674
3798.3926,0.9957214105273815,1262.986902729303
3799.2686,0.9969810506050947,1276.240671477156
3800.1426,0.9976528233287755,1162.6484893150973
3801.0188,0.9975421195249782,1226.1391949726433
3801.8933,0.9968600309682567,1220.535369781919
3802.77,0.9959182549617513,1328.0040775289415
3803.6448,0.99484309849497,1169.3908445395111
3804.522,0.9935704601034125,1338.1980067109353
3805.3972,0.9921112478796258,1240.7147757062737
3806.2727,0.9906779428788111,1260.7403175796849
3807.1504,0.9895827470225764,1225.4845174207458
3808.0261,0.9890320175067001,1372.509700855843
3808.9043,0.9890318752358548,1334.685483987968
3809.7805,0.9894676492832103,1399.781378622442
3810.659,0.9901648448407728,1351.1888272044018
3811.5356,0.9908745049029752,1339.52773149566
3812.4126,0.991321297015433,1352.874895908892
3813.2917,0.9913729774096586,1217.7779739452942
3814.169,0.9911978570966661,1278.6621305248925
3815.0483,0.9911492726186463,1451.5219712910862
3815.926,0.9914146263362497,1363.9117072411846
3816.806,0.9917868698600982,1399.801931210206
3817.684,0.9917959300162739,1244.3211818468146
3818.5623,0.991049025239066,1330.201661561362
3819.4429,0.9894295392578036,1367.6018759571111
3820.3215,0.9870895089553083,1439.9425895858483
3821.2024,0.9842758264100514,1532.268937391852
3822.0815,0.9812463878794069,1295.7132292247418
3822.963,0.9781660363447126,1446.16005929288
3823.8423,0.9751729658351374,1369.0183928714655
3824.722,0.9723708435384376,1384.3505149282505
3825.604,0.9698369393546464,1569.614955776781
3826.4841,0.967541289557939,1358.4022226023967
3827.3665,0.9652520539748193,1471.5403595690839
3828.2468,0.9627183046041918,1397.3621625260512
3829.1296,0.9598702586066675,1357.7396918217182
3830.0105,0.9569579928495356,1306.5622335178523
3830.8916,0.954331797637817,1499.0382629922933
3831.7751,0.9523322278078739,1535.2025299923614
3832.6565,0.9515818980840326,1251.1150618002316
3833.5403,0.9534922715230902,1404.5785888091796
3834.4224,0.9601818080314096,1645.0210953058954
3835.3064,0.9730385820980147,1274.858894191347
3836.1887,0.9903047378844461,1736.0610144262773
3837.0713,1.0063805734879445,1722.5596886126464
3837.956,1.0142027718749946,470.6705613632893
3838.839,1.0098580145812392,1392.7330203127208
3839.7244,0.9954924676506294,1535.1488330997527
3840.6077,0.9776992999388885,1693.6004929341304
3841.4932,0.962866317508567,1528.0826870127096
3842.377,0.9542068633320073,1518.512065040993
3843.261,0.9514007166075636,1542.8598072174962
3844.1472,0.9525127344218369,1413.7895252543237
3845.0315,0.955583799541584,1422.3192634493255
3845.9182,0.9593247397224586,1576.8321338493135
3846.803,0.9629881400175402,1671.210746209873
3847.69,0.9661810407707104,1232.8017389789818
3848.5752,0.968700886353173,1237.6902499038167
3849.4604,0.9705945057697296,1492.3961924166365
3850.3481,0.9720659245452163,1322.2776019144555
3851.234,0.9733174928469438,1422.2203341274746
3852.122,0.9745002700321926,1301.122808148274
3853.0083,0.9757370622239485,1347.0665445292868
3853.8967,0.9771698872602922,1223.046562049331
3854.7832,0.9788353378103003,1323.3136286790373
3855.6702,0.9805938405395086,1274.6960358116646
3856.559,0.9821853202662582,1377.8937458216294
3857.4463,0.9833871754110073,1112.5295689351706
3858.336,0.9841010458808808,1487.893382098574
3859.2234,0.9842573625180007,1291.886121586692
3860.1135,0.9837831664885175,1312.0189316162562
3861.0015,0.9826985212364326,1375.1343279326554
3861.8896,0.9812234699986662,1311.8666029782107
3862.7803,0.9797170151099149,1461.2828982712176
3863.6687,0.9784734654011839,1299.0256060034578
3864.5598,0.9775013811228647,1447.3112246366597
3865.4487,0.9765057402514707,1307.0952154948102
3866.34,0.974970857725433,1380.5701466916016
3867.2297,0.9724091715901206,1384.1668227644934
3868.1213,0.9686034447646008,1259.1731476407213
3869.0112,0.9638251252180372,1337.7711939493963
3869.9014,0.9587117905636658,1438.29256024213
3870.7937,0.9540096308395472,1492.8119244821205
3871.684,0.950311374962704,1417.3304818679926
3872.577,0.9478019558911212,1420.4409275366431
3873.4678,0.9462538067319523,1477.8327099635799
3874.361,0.9450170628793704,1437.4997960869498
3875.2524,0.9432847900915522,1297.0732545577825
3876.1438,0.94043341451422,1607.9602401716763
3877.0376,0.9362868192362078,1545.3443384993661
3877.9297,0.9311350141992509,1338.2871232606117
3878.8237,0.9254148287365482,1600.2225873225339
3879.716,0.9195386360068324,1513.5297717502683
3880.6108,0.9137024193263354,1447.9958069458423
3881.5037,0.9080344651082956,1703.816650281845
3882.3965,0.9025700592018767,1478.5374587597955
3883.2917,0.8973004069183281,1519.3360508070998
3884.185,0.8921738781569679,1590.2123078310033
3885.0808,0.8870240655993127,1491.130588265003
3885.9746,0.8818144989662596,1685.3631190550293
3886.8706,0.8767062806950212,1647.786899975229
3887.765,0.8721815728894731,1828.7223705277431
3888.6592,0.8688258530664617,1968.3504996976492
3889.556,0.867186277743694,1772.4495149011632
3890.4507,0.8676228592703756,2004.3884267286453
3891.348,0.8701436079916396,1622.2105828855758
3892.243,0.8743066661580446,1771.8549408164502
3893.1406,0.8794168909135055,1502.7439428326745
3894.0361,0.8848413419669312,1496.1464853426285
3894.932,0.8904305093970558,1789.3923305826634
3895.83,0.8964217467665169,1530.4616987339223
3896.7263,0.9030250276183687,1644.712224092243
3897.625,0.910226615723166,1660.5273213402918
3898.5215,0.9176474849568044,1504.8978822495142
3899.4207,0.9248780247912505,1441.9302910884926
3900.3176,0.9315427947995751,1446.5119849842683
3901.2148,0.9376134089220194,1721.1392629709987
3902.1145,0.9433992828746863,1418.1782428388299
3903.0122,0.9493534998031997,1418.0500663057846
3903.912,0.9558359595464228,1343.7890846777045
3904.8103,0.9627321025248231,1236.2335119239276
3905.7107,0.9695904409942945,1396.411519140113
3906.6094,0.9758049425722284,1361.3984815347355
3907.508,0.9810555639751867,1263.298406537214
3908.409,0.9854042367242075,1361.982910790641
3909.308,0.9891588680850923,1248.2577719452943
3910.2097,0.9926937127903886,1247.1855774105275
3911.1091,0.9961856590285312,1190.9018396686256
3912.011,0.9996654388056382,1156.7008903096598
3912.9111,1.0030761598787503,1393.0063060576242
3913.8113,1.0064841964726376,1209.6151969323669
3914.7136,1.0100776742118383,1334.6600687013915
3915.6143,1.0139680115650072,1160.927066960646
3916.517,1.0180404165492594,1243.9246919540099
3917.4182,1.0218836613130287,1221.9098087138743
3918.3215,1.0250861749461513,1243.7131365059813
3919.223,1.0274210261402135,1183.7838075398142
3920.1245,1.0289706626822424,1177.035920166034
3921.0286,1.029991783763753,1191.9860654581732
3921.9307,1.0307425354465387,1177.2541579739475
3922.835,1.0313522209779078,1151.3515158083358
3923.7373,1.031766301800733,1157.9898945135933
3924.642,1.0318508181582675,1183.6512327382425
3925.5452,1.0315294428617356,1318.883141555596
3926.448,1.0308538557653564,1203.0335557273531
3927.3535,1.0299457476742968,1189.3327031343317
3928.257,1.0288949430196836,1205.3779582165475
3929.1628,1.0276508836982639,1231.2101482013709
3930.0667,1.0260353521795718,1272.8344187932041
3930.9731,1.0238209374863871,1195.0476021861766
3931.8774,1.020951222534736,1362.8015467804512
