wavl,flux,ivar
3566.9744,3.8950412439023516,102.99293962710412
3567.795,3.877301484797746,132.481554014884
3568.6177,3.863359685617834,94.20618179158541
3569.4385,3.8527752901826413,101.74856421872312
3570.2617,3.8475533376631073,130.82276217391964
3571.083,3.851153312029092,116.11756075063522
3571.9065,3.8650599519626216,84.68863598300999
3572.7283,3.8863831706192764,108.9004391339321
3573.55,3.9089512245312035,103.34761799076813
3574.374,3.9267590992069406,94.71830020441018
3575.1963,3.9370375030795333,105.66083877763002
3576.0208,3.9408655366777667,115.85407716667495
3576.8435,3.940432250091478,124.96610609182716
3577.6682,3.9362992730205857,119.52276223212341
3578.4915,3.926843099921645,87.55599543484965
3579.3145,3.910168448519164,105.53745630102816
3580.14,3.8866951002208783,108.16300768333123
3580.9636,3.860953524915116,127.01671798930931
3581.7893,3.8404356705767095,94.36730920753592
3582.6133,3.8327466782482142,195.38809111063372
3583.4395,3.841109959585629,101.70108768562966
3584.264,3.8622564224033358,98.52338019657026
3585.0884,3.8880965105090155,113.00482949680153
3585.915,3.9098266643332815,129.2807742862109
3586.74,3.921372359549906,107.87928592194488
3587.5671,3.9213631611440607,92.09058677093921
3588.3923,3.9125437856812555,120.30771661782552
3589.22,3.899739049864664,119.20208931058902
3590.0457,3.887107460987948,120.35307077059547
3590.8716,3.8759439525203714,110.61900096736272
3591.6995,3.8651444395891517,97.5952941282702
3592.526,3.853521413097193,136.04350724050607
3593.3542,3.841753167060972,116.87285704212074
3594.181,3.832699230975515,129.37121411340567
3595.0098,3.829175702637135,110.8213916860741
3595.8367,3.8310177794442173,120.70207530636095
3596.6638,3.8322111024735803,98.52485873066752
3597.4934,3.819345001969864,108.69377155680198
3598.3208,3.7730662822176853,127.29466654256197
3599.1506,3.674850981309631,93.01217357060098
3599.9788,3.5230873953957715,112.29827295465297
3600.8088,3.346475213517474,134.27151058287475
3601.6372,3.204586546443596,108.93452945286701
3602.4678,3.156248783864479,55.14371254907437
3603.2964,3.222552271264207,126.8983464712737
3604.1252,3.3712453525904107,115.49682938480667
3604.9565,3.54187091924858,118.30875810587357
3605.786,3.6827641529483417,81.89711835491123
3606.6172,3.7755891039348652,101.74434282761891
3607.447,3.827613861898024,107.47706790134194
3608.2788,3.8562903010601466,125.45189682021041
3609.109,3.875318238710903,137.18477715729023
3609.9392,3.890958135001821,140.7920917637497
3610.7717,3.903201153012253,97.6215254741216
3611.6023,3.9092963282504747,96.65145673067076
3612.435,3.907373064957757,96.22879859697471
3613.266,3.8981634725688474,166.13818021358742
3614.0994,3.884731399588434,98.90533349108713
3614.9307,3.8710769699344287,102.4024796248744
3615.7625,3.8602791309390123,139.89217207105816
3616.5962,3.8536780439533502,111.09754802375843
3617.4282,3.8509305003731455,105.11985907651128
3618.2625,3.850933954726029,108.93589810596715
3619.0947,3.853104821017869,108.62135212165386
3619.9292,3.857650136439727,106.76583991956326
3620.762,3.8643602732238547,114.041391843983
3621.595,3.8712804858255456,91.55845621719004
3622.4302,3.875042248894913,99.59574971836975
3623.2634,3.873140128161443,119.98043444953973
3624.0989,3.86588073583841,114.94047469941754
3624.9326,3.855894080841947,121.65925485092251
3625.7686,3.845833794449258,99.7975550338054
3626.6028,3.836972893044967,122.25995912399858
3627.437,3.8290482688399887,134.38819810014857
3628.2734,3.821107654507242,116.69113033677928
3629.1082,3.812357155528416,159.5092461784107
3629.945,3.802789998081935,99.64965193597658
3630.78,3.793862065442831,123.45218881372614
3631.6174,3.7879309076237857,124.21794495837005
3632.453,3.787013903160479,125.44132836907082
3633.2883,3.7911834296416993,127.92205452810776
3634.1262,3.798408593910688,108.05883157842698
3634.9622,3.8059297682580073,130.13742950523576
3635.8005,3.8125301679692414,89.35640286052828
3636.637,3.819064866910168,172.32343794008148
3637.4756,3.827021707560535,122.19237196129968
3638.3123,3.8363587735450246,144.19404993617485
3639.1492,3.8454390601680712,99.95699967307746
3639.9885,3.8524423650001194,117.75852180604414
3640.826,3.8565114851084497,115.05630788051504
3641.6653,3.857640097956757,114.88562202484309
3642.5032,3.8556337627877,126.08020652477137
3643.343,3.849736618976896,115.84798473032512
3644.1812,3.8393243268908734,118.15442362128427
3645.0195,3.824966781924662,111.678180565551
3645.86,3.809055172125751,123.76016652868574
3646.699,3.7952861405049885,119.25348231886537
3647.5398,3.7865451369229315,135.98593821423802
3648.379,3.7832663000871456,108.217656004559
3649.2202,3.7829272039839665,113.75126851648666
3650.0596,3.781548189686649,119.41686410194025
3650.8994,3.7757023446824016,101.89788937367203
3651.7412,3.7638130399173715,106.7107596864808
3652.5813,3.7465690554041937,150.29832579143925
3653.4236,3.726495681071241,100.58259941160351
3654.2642,3.707870862069998,106.96064145730021
3655.1067,3.695463839695785,110.37028803957807
3655.9475,3.6929359888535136,156.81075348816123
3656.7886,3.700598305261895,111.58689849919452
3657.6318,3.7150152402374577,108.95531553308307
3658.4734,3.7304440270179917,108.47859503268813
3659.317,3.7418664221111375,132.85273395341062
3660.1587,3.746901578704809,118.31517038224852
3661.003,3.746198723429981,109.16788122262462
3661.845,3.7418025157534562,113.5142876577806
3662.6875,3.735279653578081,124.05097373473833
3663.532,3.727141175287425,110.43047296294519
3664.3748,3.717989855510005,103.07442723158897
3665.2197,3.709659413937885,119.78926916785538
3666.063,3.705134521173707,147.19587710657433
3666.9084,3.706667125510537,132.2837394877344
3667.752,3.714117647677427,136.06338799948165
3668.5977,3.7248117150759756,113.5063767690514
3669.4417,3.7349121354508235,111.47193593765721
3670.286,3.741631390861973,111.17413093557192
3671.132,3.7443560874509405,118.0553855574818
3671.9768,3.744302731261254,118.4158321008044
3672.8235,3.7431274733148556,136.18306199254303
3673.6685,3.741780387247773,117.63257393186295
3674.5156,3.7404140721923524,138.54653898217344
3675.3608,3.7388068431225205,133.78513889986272
3676.2063,3.7363879774685276,112.5019441595713
3677.0542,3.7321293488023284,125.13068788908434
3677.9,3.7251427530719092,110.41841785546704
3678.748,3.715800462507839,96.93665705662482
3679.5945,3.7066286918268743,116.80013272509437
3680.4429,3.701308777817413,142.3726544320109
3681.2896,3.7025192955208532,133.7065922860948
3682.1365,3.709691172684835,117.20501184214025
3682.9856,3.7188055797939588,131.9646796130254
3683.8328,3.72428902746809,116.13921123706362
3684.6824,3.722133259800402,114.87166702634087
3685.53,3.7118988679776415,147.1827547797295
3686.38,3.6966767723699503,131.58050328739765
3687.2278,3.6814118712930015,124.35240370668366
3688.0762,3.6703056550797557,169.20182624145778
3688.9265,3.665718258727631,130.24881300953842
3689.7751,3.668531162850997,113.82418205201743
3690.626,3.6790369935985296,119.46042137262668
3691.475,3.696804566953854,120.3858508667446
3692.3264,3.7198264366270513,153.0456120644062
3693.1758,3.7436731496957947,129.10151582490894
3694.0254,3.762875079247762,144.0863261583668
3694.8772,3.772895776943607,141.47305893965256
3695.7273,3.7723239238609656,144.99903354654032
3696.5793,3.763767868880305,141.0047645043477
3697.43,3.752189963246418,123.29959822049214
3698.2825,3.7415309630422464,134.20558164929622
3699.1333,3.7326008903344428,110.33564124280599
3699.9841,3.723712583769401,116.8292542293651
3700.8374,3.713475771824619,107.98172618065013
3701.6887,3.702601472128583,136.1320447885178
3702.5425,3.6929937686812,141.58054166797018
3703.3943,3.686102580511691,134.17112611901996
3704.2483,3.681771823222933,139.3491613688483
3705.1003,3.6788154222871037,108.97478501071113
3705.9526,3.67590723432653,113.03550831341182
3706.8074,3.6722131194359173,151.34441554090213
3707.66,3.6674518491529664,140.4607515017762
3708.515,3.6616861597160852,126.25722817392142
3709.3682,3.6554482800797086,130.44134780079202
3710.2234,3.6496484065504435,120.29617276153385
3711.0771,3.6453936339499453,144.73529215770222
3711.9307,3.6435472025537154,201.84174454437266
3712.7866,3.644660530888204,109.49841181502717
3713.6409,3.6487858392458783,157.5905996654353
3714.4973,3.6550119348829115,124.37463838462271
3715.3518,3.6611807942317744,140.25934257603114
3716.2085,3.664710648603791,127.10850381878133
3717.0635,3.6635227205038303,123.43783455103538
3717.9185,3.6563601477555623,124.4833870766793
3718.776,3.6426564095119716,122.54610768146378
3719.6313,3.623685690680055,127.24278386516218
3720.489,3.603693137529256,140.88349760867993
3721.345,3.5894930877169053,157.63481513456313
3722.2031,3.586596415572123,144.7365631785755
3723.0593,3.5958490979040434,135.82940627309893
3723.9158,3.613007072795998,180.51106494545624
3724.7747,3.631571866439633,137.9819180565333
3725.6316,3.6457104183647817,137.62739675104214
3726.4905,3.652298838848858,129.0021473480355
3727.348,3.6510755794150462,118.23759428934632
3728.2073,3.6443830742706447,129.4523776979995
3729.065,3.636075628212914,125.43311857825411
3729.9229,3.629613276372122,142.99269304716182
3730.783,3.6262027016510117,132.51190589515716
3731.6414,3.6238938982457762,145.2889589769361
3732.5017,3.6184070856151576,129.6203671809995
3733.3604,3.6057858572142893,143.2157932054468
3734.2214,3.58532230274797,124.75399614843683
3735.0803,3.561379192695025,132.870138679435
3735.9417,3.54142786408216,160.81509795963743
3736.8013,3.5322933154040768,130.2574497945271
3737.661,3.5359023064991053,123.5093134830344
3738.5227,3.548841328522532,134.83020343148578
3739.3828,3.564863290112538,110.22400785481163
3740.245,3.5788423727112475,123.32468398039963
3741.1055,3.5885921153940235,161.1909012145331
3741.9683,3.594430695110777,126.39812873994595
3742.829,3.5966848641633176,147.76148254531205
3743.69,3.594268143122467,129.9969168653072
3744.5532,3.5854215373466007,121.70177694185776
3745.4148,3.57028212854808,127.85853642055201
3746.2786,3.5520881400550297,131.23997371145074
3747.1404,3.5359165225619797,196.57289604384482
3748.0044,3.5253871952374416,93.72863898973117
3748.8667,3.521598382616714,129.80347943620038
3749.729,3.5242316791102932,159.57061636810732
3750.5938,3.5332871959184233,133.44965054053742
3751.4565,3.5484761274933163,152.68687112687473
3752.3215,3.5677143720980573,149.07146954095387
3753.1848,3.5866501592036,138.85372258247514
3754.0503,3.6010309227868964,169.1518198944561
3754.9138,3.6086902669761,118.56286698882508
3755.7776,3.6101891567938704,132.29866405623937
3756.6438,3.6073711599331943,122.14017014919033
3757.508,3.602195005686264,154.48331429589135
3758.3745,3.5962349929518105,138.28261180308365
3759.239,3.59058354976267,139.94017234391993
3760.106,3.5853755954876965,114.52411225440265
3760.971,3.5798824821818904,145.509873991812
3761.8362,3.573271909401599,140.39872263564342
3762.7036,3.5657195264394437,130.01721296087345
3763.5693,3.558624682549156,132.61175669057008
3764.437,3.553507040587562,171.93361653903224
3765.3032,3.550828407692635,206.94437497908308
3766.1714,3.549419530156224,144.81368774336843
3767.0378,3.5474586488448403,145.6455941307129
3767.9043,3.544375210633746,138.79887292350978
3768.7732,3.5420986046075833,174.7757332832313
3769.6401,3.5440410056246283,145.37035668115814
3770.5095,3.552280156046488,129.62731284979162
3771.377,3.565441108808945,135.26721244381304
3772.2466,3.579401934091551,135.61680855600727
3773.1145,3.589668659588085,131.00029348705337
3773.9824,3.594080437763518,136.29852912959748
3774.8528,3.593453049696878,130.54621526934477
3775.721,3.590548244684229,107.84809956300556
3776.5918,3.5881543301661893,128.28102722276753
3777.4604,3.5878118798461167,121.7439684407675
3778.3315,3.589750793735192,134.29002662242948
3779.201,3.5936087897358506,145.31941336854882
3780.0703,3.598843112416876,121.34515999053781
3780.942,3.604516703741594,137.29051646431105
3781.8118,3.6091102299706566,122.20913013835099
3782.6838,3.6111671623917863,144.67524181326317
3783.554,3.610114129826738,140.86129644702902
3784.4265,3.6065920908044564,127.16789690909191
3785.297,3.6018381187241806,157.5333777098784
3786.168,3.596617073285739,142.58126951043286
3787.041,3.5906801500407535,127.46944750113974
3787.912,3.583163216592331,148.53614983764416
3788.7856,3.573486871472272,116.76177330857294
3789.6572,3.562354768766362,142.1943092897719
3790.531,3.5513998554514616,168.23129489235248
3791.403,3.542143339832638,144.47322353498717
3792.2754,3.5344754508021614,133.5006081266324
3793.15,3.526454940893456,137.56341252219227
3794.0225,3.5155379861993503,129.6290161319789
3794.8972,3.500425327490866,138.08859644865424
3795.7703,3.482768099095004,137.67433564415066
3796.6455,3.4666775709202597,167.94362385081007
3797.519,3.456821007687735,142.0870516449506
3798.3926,3.455408770784063,160.9505727679434
3799.2686,3.4611385066419675,144.7591059482298
3800.1426,3.4703076748320596,151.83098999864652
3801.0188,3.4794341932219672,159.58129635757138
3801.8933,3.4868415573748757,151.11661131357636
3802.77,3.492690465981454,127.41557463755053
3803.6448,3.4974880777618664,137.7722760028457
3804.522,3.501028727498257,125.77321790687668
3805.3972,3.5024456878759214,129.41165628474076
3806.2727,3.501649252773216,146.14523140360643
3807.1504,3.5004219387825493,125.95579321000095
3808.0261,3.501806412629009,140.32208024140428
3808.9043,3.507801902444397,158.22159947337306
3809.7805,3.5173147303018695,132.92398061327185
3810.659,3.5265824687235012,163.61387090538278
3811.5356,3.5316848789761743,115.97667950539693
3812.4126,3.5314568379488875,146.98231857302872
3813.2917,3.527857523139483,129.84072327154755
3814.169,3.523962834641238,161.70116621082278
3815.0483,3.521447998688455,143.81865183039383
3815.926,3.520062793034058,155.66079319528222
3816.806,3.518858987910032,137.45391949825677
3817.684,3.5174259248476085,165.49871637973501
3818.5623,3.5157152877147055,131.72269223435995
3819.4429,3.5132844846889397,138.58810094157303
3820.3215,3.509356298138094,139.4957245072793
3821.2024,3.503611664212448,127.85734881238216
3822.0815,3.496648361451556,240.5062657885591
3822.963,3.4891932127709944,140.76024340557677
3823.8423,3.481420982707145,139.9232338064595
3824.722,3.4730399352752075,148.29327758705261
3825.604,3.4641459247851545,147.56108758920084
3826.4841,3.455449463069323,132.61948143139276
3827.3665,3.4474046382376016,148.55370781787133
3828.2468,3.439784632254625,142.207034117761
3829.1296,3.431741731707408,154.52361326126368
3830.0105,3.4224675410818275,149.05963172448844
3830.8916,3.4110988938887314,173.029340834974
3831.7751,3.396539767260027,138.20019450423283
3832.6565,3.37799420581121,144.3818666479457
3833.5403,3.3558753237442067,148.84439419533686
3834.4224,3.3330626065129763,137.62795044839174
3835.3064,3.313736349422706,161.1252177757189
3836.1887,3.301348087460546,159.6826882159916
3837.0713,3.2962503392721785,141.5371547308008
3837.956,3.2961597820152786,159.05479920537624
3838.839,3.298717943708934,134.49182999262598
3839.7244,3.3040931604875676,179.3928635291333
3840.6077,3.3149503477872257,159.38295878851017
3841.4932,3.333974298018733,163.59473190608114
3842.377,3.3608057161581573,146.85999349872645
3843.261,3.391598006206296,144.45044412271042
3844.1472,3.420716288581048,134.6883187516307
3845.0315,3.443331693284274,129.14225086348722
3845.9182,3.457882884084394,118.30844548424568
3846.803,3.465847172025918,143.60686747812426
3847.69,3.4705434714248202,143.58629955233695
3848.5752,3.474818078830123,133.1152478264476
3849.4604,3.479790320939801,139.5013108704154
3850.3481,3.4850067280098895,131.0923685123712
3851.234,3.4895783544833123,135.70992306377005
3852.122,3.4931093114760747,135.5137315194363
3853.0083,3.495331246285857,133.21518970534052
3853.8967,3.4953150768393013,117.66681261768886
3854.7832,3.491163101521376,140.58534498747642
3855.6702,3.4808961534776044,145.15668171818976
3856.559,3.464002933134847,122.1242911871517
3857.4463,3.4427215427307125,143.05848413614268
3858.336,3.4212760856789544,167.57901024692111
3859.2234,3.4042189702990524,152.47455551083118
3860.1135,3.394177901117444,136.97481605589857
3861.0015,3.391935329982489,133.4950950522696
3861.8896,3.39698470023895,138.8813875244263
3862.7803,3.407952107100339,153.53931656487717
3863.6687,3.4220228075446464,139.35515853385638
3864.5598,3.4354208815750904,158.13621061828292
3865.4487,3.444623420812115,165.84053689643997
3866.34,3.4481535434753003,122.82899823421982
3867.2297,3.4466507302715232,182.93774758806333
3868.1213,3.4418904723673007,140.61973394718387
3869.0112,3.43543152784949,131.9334690247178
3869.9014,3.42789145530218,130.1116820443409
3870.7937,3.419247824369486,152.9206823031076
3871.684,3.4098094907122998,140.77802917225594
3872.577,3.400904811787294,145.9828483452301
3873.4678,3.395036990354694,164.87065320393202
3874.361,3.394476754780881,172.5967828066289
3875.2524,3.3994519035970487,144.3413857820452
3876.1438,3.4071171546318797,129.3826151270674
3877.0376,3.41282351294841,152.57510847740994
3877.9297,3.4130462494413614,128.17162244575417
3878.8237,3.4078296969643804,138.6021760203989
3879.716,3.40026456180534,149.1045448109518
3880.6108,3.3934322000761354,152.94557419586582
3881.5037,3.3878674203371464,145.020001156054
3882.3965,3.3813081888319045,145.5536238577638
3883.2917,3.3705534217540074,139.8749332345749
3884.185,3.3534383764497133,157.15925996756232
3885.0808,3.329623029062583,139.53495901181319
3885.9746,3.3012763118470425,164.34721612923462
3886.8706,3.272349644011287,165.97649599017998
3887.765,3.2477690573088207,159.6068106025672
3888.6592,3.23110972532065,147.8274882885044
3889.556,3.2236681277636885,153.99802539387065
3890.4507,3.22477952224692,189.44695419354437
3891.348,3.232822088217266,169.75907754537107
3892.243,3.245896988573367,160.12347193691068
3893.1406,3.262101350082812,169.0838203225526
3894.0361,3.279504662872887,169.0248281475126
3894.932,3.296995757514355,155.17205342066254
3895.83,3.3144084710506596,153.49117289535818
3896.7263,3.331836564076213,146.39225804592348
3897.625,3.349002424240341,154.1709045271288
3898.5215,3.3645635368292046,170.66275186353116
3899.4207,3.3770109251145053,172.3287458969218
3900.3176,3.3851926640751158,150.70401895647248
3901.2148,3.3889289057689447,129.43979440115353
3902.1145,3.388718009346068,164.6178773337785
3903.0122,3.3856541114004575,165.62485538667826
3903.912,3.3814663433367502,155.1792141000198
3904.8103,3.378454666194297,148.68881824571483
3905.7107,3.3788633173003215,121.17171718386808
3906.6094,3.383968132933847,152.8538605435106
3907.508,3.3932582251763055,158.91608325935425
3908.409,3.4044212503610356,166.4641620036375
3909.308,3.4142746833825743,162.613724552292
3910.2097,3.4206290849447805,136.56079601256687
3911.1091,3.4233361836159935,145.7831507235901
3912.011,3.4242661515495,148.58869405880688
3912.9111,3.425963316350943,149.13848330640667
3913.8113,3.4302012752543174,168.0116231343452
3914.7136,3.4370403125178606,157.9727589807373
3915.6143,3.4446558271122663,162.79289154172562
3916.517,3.4502870941513906,137.71965097314592
3917.4182,3.451622817848604,133.39535837064355
3918.3215,3.448091213673327,147.2224073139027
3919.223,3.4409144510451073,142.19102931110694
3920.1245,3.432094248067476,148.13632677077666
3921.0286,3.423354690464786,139.10124806775764
3921.9307,3.4158400310315606,146.30483107420935
3922.835,3.41016415536768,156.82000428470243
3923.7373,3.4067169478238655,139.12773452751523
3924.642,3.40538909542075,184.7121273994975
3925.5452,3.4053989580059314,135.70275330448007
3926.448,3.4054946747490784,149.70319177595889
3927.3535,3.4046971841943128,143.31372354825734
3928.257,3.402661343376636,150.46959893464842
3929.1628,3.3986540469444244,152.0253414645004
3930.0667,3.3896179245311533,150.19457086904276
3930.9731,3.3693075057714563,156.3695910843926
3931.8774,3.3314943786765423,135.92206021479993
3932.782,3.2760483972230157,137.08513201814503
3933.6887,3.2142850496006763,186.3575099985216
3934.5938,3.167325974421786,184.861986711939
