wavl,flux,ivar
3566.9744,0.3552847861899376,1479.545855522098
3567.795,0.3551420412211085,954.5045786133539
3568.6177,0.3544113126675985,907.4529019295858
3569.4385,0.35316443960826965,1624.8126922739052
3570.2617,0.3513439230440972,977.7919730932341
3571.083,0.3488108407585747,2276.2481720861715
3571.9065,0.34548484124265344,1074.356642359136
3572.7283,0.34162243242838475,2310.7469845879823
3573.55,0.33784831383669456,1203.284418576462
3574.374,0.33500078555552704,1194.141541208106
3575.1963,0.3337832354364913,2129.7744452912807
3576.0208,0.3343687627888994,2180.8900191941443
3576.8435,0.33632767015768444,1587.3528556577987
3577.6682,0.33889139953462344,1389.4052625580816
3578.4915,0.34133357024460914,956.6466909029735
3579.3145,0.343200818813264,1359.859841446374
3580.14,0.34418847545829817,2050.267415472553
3580.9636,0.344031077693774,1458.357949452188
3581.7893,0.3427043578011472,2083.175535073083
3582.6133,0.34070609567072246,2019.4803182906446
3583.4395,0.3389637549326442,1476.204926133803
3584.264,0.3383767584321138,1223.497475034566
3585.0884,0.3393172264572009,1287.6043136067885
3585.915,0.34156982621602405,1452.0209475661302
3586.74,0.3445189298626006,1406.1457969235173
3587.5671,0.3474351576086224,2778.293759153461
3588.3923,0.34963169431491675,904.0829851323681
3589.22,0.3507364760086043,1044.3079629840126
3590.0457,0.35080623149070156,1293.845358128852
3590.8716,0.35027571036857913,1661.4699897872456
3591.6995,0.34966339889000964,1641.9195143521306
3592.526,0.3493255737576843,2146.2559966402073
3593.3542,0.3493707279301171,1483.0861048332465
3594.181,0.3497487572837104,1408.780554282908
3595.0098,0.350382213376991,1881.6494748043324
3595.8367,0.351185287179005,1752.9427421797207
3596.6638,0.35192426479178107,5995.675818775063
3597.4934,0.3520493922530111,3637.6507104273905
3598.3208,0.3508249967507196,1122.775621972711
3599.1506,0.3477987769486942,1301.3359524129296
3599.9788,0.34328790828047223,911.800922288964
3600.8088,0.3383056600685548,1299.193832345499
3601.6372,0.334087487381518,1968.1143619790348
3602.4678,0.3313924029390673,980.8003940119527
3603.2964,0.3303352699623767,2137.272010604002
3604.1252,0.33053085760275724,1525.5159796933433
3604.9565,0.3314628015299658,1888.5673582416111
3605.786,0.33268235348627145,1034.2657127693667
3606.6172,0.3338819639210261,2760.1638404174623
3607.447,0.3348322318727074,1855.0893124111374
3608.2788,0.3353599782292907,1307.579192906729
3609.109,0.33536462846696297,1775.8900620456457
3609.9392,0.33488683589788104,1771.284054958516
3610.7717,0.33409339336011185,1820.5841480307877
3611.6023,0.3332063100676393,1560.6807975263305
3612.435,0.33242494721484467,1327.8816099354137
3613.266,0.33194323160363237,1233.1565278694789
3614.0994,0.3319300330377003,1491.4885715504631
3614.9307,0.3324431421223049,2114.8000221867796
3615.7625,0.33332493824973114,1342.4638340315455
3616.5962,0.3342533782771226,1857.7605379147985
3617.4282,0.33493974170531027,1478.658335328746
3618.2625,0.33531225168016254,2036.3107775037315
3619.0947,0.3354813079262605,2777.074350697969
3619.9292,0.33558823812923055,1858.2016721392083
3620.762,0.33566029897820826,1325.0183217841707
3621.595,0.33557044865424324,1328.5581555794456
3622.4302,0.3350947221743183,2380.1104759779055
3623.2634,0.33406342283166574,1227.7300297479462
3624.0989,0.33247999235295705,1277.160480037138
3624.9326,0.33051390754429916,1871.1125048552913
3625.7686,0.328334106092403,2951.6143451624143
3626.6028,0.32614069426518627,1124.691334861475
3627.437,0.32430885935643894,2668.436802312439
3628.2734,0.32340086613039193,1567.672189577692
3629.1082,0.32370771959552197,2172.4849389247106
3629.945,0.3246998752572972,1298.3365023807125
3630.78,0.32513017031587976,1238.4470803867925
3631.6174,0.32391052062724224,1430.1332629011456
3632.453,0.3209807144460204,1860.0874008338433
3633.2883,0.31729981995683254,3101.1498122078574
3634.1262,0.31400351534230614,1025.5912553992896
3634.9622,0.31160238662854256,1453.6326580708
3635.8005,0.30980734033666074,1378.2187594730729
3636.637,0.30810504852873555,1909.8268596005337
3637.4756,0.3062687949593483,1416.5878057933514
3638.3123,0.3045636815947986,2566.018042277454
3639.1492,0.3035038685842564,1734.454628933446
3639.9885,0.303489196392369,3004.77122381064
3640.826,0.3044695510299842,1905.2100944102194
3641.6653,0.30590258247762914,1372.2000676319608
3642.5032,0.30705985801254104,1285.6985386672172
3643.343,0.3075107496602967,2807.273595751762
3644.1812,0.30735079086754413,3323.1041794486036
3645.0195,0.3070399471860504,1030.9874284713192
3645.86,0.3069859418546956,1081.6940613982617
3646.699,0.30724114625345905,1521.6990107854708
3647.5398,0.3075217029779479,1758.992173374657
3648.379,0.3074842022501467,1913.9928675989484
3649.2202,0.30700096054109327,1911.4743484057508
3650.0596,0.30620758164508277,1782.053185818693
3650.8994,0.30532510675702157,1990.3324608684018
3651.7412,0.30448852264257986,1773.5303983023737
3652.5813,0.30374008195221197,1757.9836746969015
3653.4236,0.30312056991095454,2218.5465781769944
3654.2642,0.3027330200771981,1799.2612453569404
3655.1067,0.30266266696942434,1747.8558041627107
3655.9475,0.30289647180039886,2432.6324066893712
3656.7886,0.30332986122383115,2349.547418414172
3657.6318,0.30384243292027857,1548.6606774634377
3658.4734,0.30433694761005725,1607.4698363107016
3659.317,0.304767737232731,1684.6813272307156
3660.1587,0.3051863548925498,1682.990852565838
3661.003,0.3057926421025177,2459.746669288902
3661.845,0.3068306340001806,997.2716864885184
3662.6875,0.3083554607763771,1492.2693716895938
3663.532,0.31001868264274285,3823.214730784078
3664.3748,0.3111248580663609,1521.1050299154904
3665.2197,0.3110381319559334,2534.499722713257
3666.063,0.309592234754512,1183.745132039218
3666.9084,0.3072111919623747,1490.4354937704588
3667.752,0.30470954378983184,1308.0759441970158
3668.5977,0.30289604681818777,2033.2148666229614
3669.4417,0.30231445812485347,1387.5060536714352
3670.286,0.3030332732319236,1993.602502327897
3671.132,0.30463942162038654,1441.9810658116207
3671.9768,0.3063722849117566,2369.5499473358605
3672.8235,0.3074633716556199,1822.8962087146622
3673.6685,0.3074735120799593,2289.6054000164827
3674.5156,0.30650711146071885,1630.6034879589856
3675.3608,0.30510563944852864,1922.2538121004143
3676.2063,0.3038766127928075,1796.538505645024
3677.0542,0.3031590837735999,2172.8358031881
3677.9,0.30295069942789843,1595.6361672192124
3678.748,0.30307758068511215,1684.4782295628384
3679.5945,0.30341161796555216,2226.9675599146576
3680.4429,0.30392236696766645,4038.053004708295
3681.2896,0.3045903791512471,1621.067214295599
3682.1365,0.305338670503072,1349.222671521162
3682.9856,0.3060186646933328,1941.0088227166593
3683.8328,0.30641466659718336,2318.966271891536
3684.6824,0.30626695397838494,1519.3133143218288
3685.53,0.30533607652631745,1795.4145625019676
3686.38,0.30353769353082644,1091.4349181563937
3687.2278,0.301081469194455,3454.743365129648
3688.0762,0.2984353131625755,3328.811496538768
3688.9265,0.2961872141995989,1425.2220890690264
3689.7751,0.29483814849022405,1700.4404554471653
3690.626,0.29460965385404536,2257.681143683176
3691.475,0.29544066026738786,2393.776594151467
3692.3264,0.2970835167471233,1646.6886984492162
3693.1758,0.2992041181676088,2428.059505429526
3694.0254,0.3014598472537796,2451.518564742863
3694.8772,0.30355095686719963,2405.1390891517535
3695.7273,0.3053443211753406,1637.818811745552
3696.5793,0.30699674038338115,1587.5367567106196
3697.43,0.30877711184995255,3341.1201765235805
3698.2825,0.3107920065787005,3348.5924279291335
3699.1333,0.31280235183277877,1637.828939825921
3699.9841,0.314383978796373,1413.7093346058464
3700.8374,0.3151306830947041,1302.762557277702
3701.6887,0.31475111937161976,1343.5745270623793
3702.5425,0.3130869107329773,1615.7976482211168
3703.3943,0.31016821526942034,2168.395561040242
3704.2483,0.3062607909326195,1266.6760437324954
3705.1003,0.30193455581545625,1464.7317568198223
3705.9526,0.29789549768295803,3068.116319865275
3706.8074,0.29480211309403415,1952.847957450046
3707.66,0.2930249832072538,1794.2742330781184
3708.515,0.29241828759814315,3952.3376553196376
3709.3682,0.29241538083746826,2097.1041038438666
3710.2234,0.2923356028644206,2395.802680838199
3711.0771,0.29182145600621245,2109.1885661312517
3711.9307,0.2910770879257106,1591.5453051869683
3712.7866,0.290715582778876,2453.7649474156447
3713.6409,0.29129930696455836,1969.9300556637563
3714.4973,0.2928965698620188,1851.994390349139
3715.3518,0.2949990901018803,1484.1893366105658
3716.2085,0.29687547384537105,1230.339666574482
3717.0635,0.2979474132603174,2537.0215474109964
3717.9185,0.2979896949967186,2121.338539318083
3718.776,0.2970270631770428,2921.8705993003928
3719.6313,0.2952628575793532,1175.7328046339874
3720.489,0.29313485977974213,2383.5753247087687
3721.345,0.29148645987560545,2036.5226627878149
3722.2031,0.2914843739044422,1741.9125555246712
3723.0593,0.2942720715017147,2849.1376124631347
3723.9158,0.3004521700248357,2118.5512831768674
3724.7747,0.30966328285473077,1461.171030379283
3725.6316,0.3201603386102237,2356.6880301332735
3726.4905,0.3290594631249258,2758.879358605716
3727.348,0.333137357887176,2454.1742733810556
3728.2073,0.33067948499454025,2992.6137761850337
3729.065,0.32267426051844805,3616.9755348977847
3729.9229,0.31227708736329557,1698.8102321856325
3730.783,0.3028547231359908,1906.9223252837974
3731.6414,0.2963608294377562,1741.6793816716183
3732.5017,0.2928710229855793,1788.0780647711063
3733.3604,0.2914514374176745,2161.3646493186607
3734.2214,0.2909671060497968,2693.679804733176
3735.0803,0.2905798812507029,1574.899083512775
3735.9417,0.28982877624136894,3146.030953483754
3736.8013,0.2885896155087288,1897.464853996084
3737.661,0.2869824235548538,2492.344529774876
3738.5227,0.28529646705858974,2103.194450886022
3739.3828,0.2839134276846704,1879.2306978854244
3740.245,0.2831244458908544,2713.6326421575054
3741.1055,0.2829758132853208,2105.63876385295
3741.9683,0.28324200053524773,1155.5500597452178
3742.829,0.28367308838683863,1352.5497460526303
3743.69,0.2842773955989016,1129.6336682547594
3744.5532,0.28530974926646,1544.3797943123764
3745.4148,0.28693060059702474,2975.213739699136
3746.2786,0.28892715136145386,2066.7409659909317
3747.1404,0.2907408838977814,1904.0608746515943
3748.0044,0.29184216642343197,1762.0983207803838
3748.8667,0.2919828060648626,2912.2339674059285
3749.729,0.2912245550171966,2027.5017373103196
3750.5938,0.2897842145290299,2142.524841447867
3751.4565,0.2880100466511555,2304.9306568965094
3752.3215,0.2864061662796994,2158.6945906716414
3753.1848,0.2855799496073439,2790.8037326854023
3754.0503,0.2859184069172821,2346.2753373657724
3754.9138,0.28732048295036733,2102.481352357255
3755.7776,0.2892344285588501,2971.8492703643674
3756.6438,0.29099267869297074,1520.2419684822294
3757.508,0.29213024726107106,1246.436464875503
3758.3745,0.2925288103226064,1469.0414672767
3759.239,0.29231619131840375,2347.2749893127107
3760.106,0.29174657573866414,1750.863668015949
3760.971,0.2910892335818231,2304.0863596661698
3761.8362,0.2905035982866604,1957.9110179662487
3762.7036,0.2899579723137649,2127.781748632184
3763.5693,0.2892753432052515,1928.560232217873
3764.437,0.28829122091191056,1242.1662464539218
3765.3032,0.2869977252080551,2355.584570721854
3766.1714,0.28550163764760084,2133.5454117791533
3767.0378,0.2839427896447527,1628.6500062660189
3767.9043,0.2824465431884824,2056.6305179450055
3768.7732,0.2811635931965942,2429.3671673588656
3769.6401,0.2802324594493511,1879.499930318861
3770.5095,0.279625997852493,1444.205902414726
3771.377,0.2791262511217592,1587.08191285433
3772.2466,0.2784635845839302,1545.513438953411
3773.1145,0.27757486437884676,2290.4326602720203
3773.9824,0.2767358841226276,1807.9021032279168
3774.8528,0.2764910475113276,3174.8864984667534
3775.721,0.27737559671786594,2511.621231749423
3776.5918,0.2795825727247438,1762.5570849442465
3777.4604,0.28278908860618696,2236.3143891412683
3778.3315,0.28640686344986643,1778.9145084935717
3779.201,0.289992820669984,2292.476085262255
3780.0703,0.2936914619974943,1618.4524677509146
3780.942,0.2981471754548861,2181.39301511784
3781.8118,0.30383722928542123,3393.9200921004317
3782.6838,0.31028374732456804,2742.143042121468
3783.554,0.3155943806135754,1735.3327367656793
3784.4265,0.3173437187750747,4176.657479310847
3785.297,0.31414819103315506,3461.3113133947786
3786.168,0.30692276945213726,2437.098702961781
3787.041,0.29841633100443626,2818.5813221756343
3787.912,0.2915381643601007,1806.60603097544
3788.7856,0.28760567281631333,1631.4421988178824
3789.6572,0.28617005023989106,2290.2276730307362
3790.531,0.2858366172892918,2821.4141537086925
3791.403,0.2854412785101086,1732.4490676765606
3792.2754,0.2845841379942154,3200.5196694834167
3793.15,0.28345770937791515,1590.4921965399205
3794.0225,0.2823560485317808,1616.752469580725
3794.8972,0.2812955741084416,2560.1078777425164
3795.7703,0.2800287639658084,2425.7245648131125
3796.6455,0.2782918857396669,2596.225964965604
3797.519,0.27614996245311574,1432.2980348560677
3798.3926,0.2740977261988898,2954.8092872628113
3799.2686,0.2728742467928063,2532.2335946802264
3800.1426,0.2730596551613021,4091.8147839595335
3801.0188,0.27470786676162484,2508.940807309127
3801.8933,0.2772726774953294,2831.14385113688
3802.77,0.27985379718167475,2274.3037249550193
3803.6448,0.2815530325966415,2310.321553282968
3804.522,0.28190544396075434,1821.194025627442
3805.3972,0.28105408329894055,2013.233625523361
3806.2727,0.27965253109895427,4019.3122453383485
3807.1504,0.27850782697666004,1683.3291295792721
3808.0261,0.278248672730368,2178.3583950793413
3808.9043,0.27915703353153726,1681.7756006774505
3809.7805,0.2811912781409174,2059.2666601361916
3810.659,0.284083809227785,1661.5181570684517
3811.5356,0.28739086209032183,2219.903743902735
3812.4126,0.29062612087979933,1963.151660731526
3813.2917,0.2933276213851549,2041.6850803850393
3814.169,0.295096976124897,2375.6573644110044
3815.0483,0.29569517929122535,1636.405476522898
3815.926,0.295107875120571,2194.645090377546
3816.806,0.29362380286506923,2152.1477832909522
3817.684,0.2917455892992127,1886.048731613546
3818.5623,0.28991981623459917,2433.416259907301
3819.4429,0.28833759227670613,2585.1676017640384
3820.3215,0.28696331204017483,1045.662326058768
3821.2024,0.28568448234383437,2685.5793464291664
3822.0815,0.28446201311284963,2097.2145743587384
3822.963,0.2832649041259704,2607.3795321518114
3823.8423,0.28199745347678473,1248.8066104901657
3824.722,0.28048935509274686,1763.5736245901203
3825.604,0.27860839174910296,2552.420554499529
3826.4841,0.276351927976903,2404.507626500057
3827.3665,0.2737971189401804,2622.00798695843
3828.2468,0.2710820364864364,1740.8125467021976
3829.1296,0.26829222632131783,3164.3984673087225
3830.0105,0.2654573273159129,4404.058074760443
3830.8916,0.2625135492731451,1925.1624025066699
3831.7751,0.25944254272467665,2180.4777252424587
3832.6565,0.25643344848049576,2707.6644970749485
3833.5403,0.25382320004968384,3536.819719124533
3834.4224,0.25198585344011537,1901.426018779758
3835.3064,0.25111060125959855,2737.1809789359586
3836.1887,0.2511992790673249,2033.7608814575
3837.0713,0.252135215772704,2866.820698163927
3837.956,0.2537759705640833,2952.198024407731
3838.839,0.2559513040105893,1733.6219987368595
3839.7244,0.25851073823743415,2178.8050946780736
3840.6077,0.26136895763830686,2093.2755205628832
3841.4932,0.26462224403687407,3028.6677802092
3842.377,0.268401235665031,3422.9234600856125
3843.261,0.2726585341745784,4373.284813352433
3844.1472,0.276949952930217,2066.5718226766835
3845.0315,0.2805273994738671,1811.9291420024817
3845.9182,0.28285927942067934,2264.014940692173
3846.803,0.28398690231424617,1757.3330153144375
3847.69,0.28453853958490016,2962.805626061662
3848.5752,0.2852115347008327,2143.3787309565737
3849.4604,0.28631332876652094,3092.8535543418325
3850.3481,0.28772890364722203,2719.0458601012156
3851.234,0.28922421569951307,2477.2919361595846
3852.122,0.29074581109251896,1810.9972517733083
3853.0083,0.29240527945229294,2048.4926772098347
3853.8967,0.29434195902203913,1616.6376617192104
3854.7832,0.2965072161608756,1583.3434283514691
3855.6702,0.2986229777358319,1688.448471245445
3856.559,0.3002756799995999,1728.7487170937934
3857.4463,0.3011649293991197,2684.2267998795264
3858.336,0.30131957392387165,1911.8832627383656
3859.2234,0.30101957719559475,1730.1342143321747
3860.1135,0.3005197023270325,1408.847793431415
3861.0015,0.2998513344570401,1992.8236729581965
3861.8896,0.29892135720415586,2385.5342048211473
3862.7803,0.29779500912880613,2143.536284720021
3863.6687,0.2968067746957318,1663.3118928154586
3864.5598,0.29632239912052266,2198.252209883572
3865.4487,0.2964571886990303,1787.0983604186474
3866.34,0.29697031707287486,1886.0638859799528
3867.2297,0.297376456024362,2235.5844147037988
3868.1213,0.2971171761505783,3324.603181509609
3869.0112,0.29574626373182183,1794.4019733269768
3869.9014,0.2931613939333958,1638.4670708054637
3870.7937,0.28974213257476317,1545.2081813075229
3871.684,0.2862378410210729,2211.640268411848
3872.577,0.28329957025267993,2565.589201544511
3873.4678,0.2811701738171931,3468.082031640891
3874.361,0.2795632623197196,1320.8583377457185
3875.2524,0.27792465407178557,1778.286657516151
3876.1438,0.27569135243420906,1803.321570758729
3877.0376,0.27250403474604756,1815.4696519010988
3877.9297,0.2683544744846201,2369.01428265259
3878.8237,0.26357270264655586,1907.8836464719677
3879.716,0.25879774595363736,2421.317115791738
3880.6108,0.25463546670518655,3687.314460310291
3881.5037,0.2514227667113895,2185.0451366253856
3882.3965,0.24900244608103797,2827.759575275602
3883.2917,0.24686538356516805,3464.9009491882434
3884.185,0.24443831817481104,2359.164545101466
3885.0808,0.24132721169760946,5630.240169342947
3885.9746,0.23752829064237815,2447.587482967312
3886.8706,0.23334316934280108,3072.5611212502095
3887.765,0.22927392789241913,3716.262410667888
3888.6592,0.22576601274457372,3112.2045325529225
3889.556,0.22314083830998538,4071.3413656106814
3890.4507,0.2216365313556992,3833.1903246386
3891.348,0.2214299779406669,4697.440295669695
3892.243,0.22268196411308694,3946.4903607416845
3893.1406,0.22548129161312291,3330.503287204703
3894.0361,0.22970229030439587,3405.2468124773104
3894.932,0.23494030748494424,2903.747859519714
3895.83,0.2405128645510063,2798.4902828731597
3896.7263,0.2456307462811874,2509.758849244443
3897.625,0.24982912235439783,3938.747886424234
3898.5215,0.2530930654751718,1921.620343843752
3899.4207,0.25589445627278673,1904.3416938100527
3900.3176,0.2588577161457809,2463.195469766944
3901.2148,0.26252599819878636,1130.1285810574395
3902.1145,0.26715249935789515,1652.21374066567
3903.0122,0.27260057692635825,2409.4036906426454
3903.912,0.27848163938149506,1910.2666778863884
3904.8103,0.2842218140141942,1549.2838048697133
3905.7107,0.2893914603257993,2751.584166408049
3906.6094,0.29380453276730417,1869.6310160301239
3907.508,0.2976268143606455,2109.984018937373
3908.409,0.3011620888583405,2233.1354390018264
3909.308,0.30456791686151735,1226.638920462775
3910.2097,0.3077864078410521,2132.1269369807765
3911.1091,0.31064530339306184,1170.9740024620623
3912.011,0.3132426648420626,1250.822071883433
3912.9111,0.31600473683215774,1846.8292580137509
3913.8113,0.31942191008695053,2309.0014741570403
3914.7136,0.3235517094857926,1386.5068514259506
3915.6143,0.32781361457242486,1115.6795852238138
3916.517,0.33138763735513194,1875.0864183109145
3917.4182,0.33366675249226335,1232.637808548679
3918.3215,0.334579537758306,1531.72935200928
3919.223,0.3344728549241809,1471.1222844050776
3920.1245,0.33391212983863705,1714.008832013682
3921.0286,0.3334647397093223,1357.9847387735397
3921.9307,0.33351722637747044,1262.0202962606966
3922.835,0.3341113927300517,1256.1105926669486
3923.7373,0.3349352199004725,1852.287803315791
3924.642,0.3355450774107341,1457.8639374764418
3925.5452,0.3356640192023851,1632.7304303941164
3926.448,0.33536426874189784,1527.1748022014026
3927.3535,0.33497225705069406,1381.5573758320959
