wavl,flux,ivar
3566.9744,6.774125859420611,18.801398084785575
3567.795,6.802213837976308,16.18834735165216
3568.6177,6.808264329601311,19.704035497404778
3569.4385,6.794189397819244,18.379376028215674
3570.2617,6.76530745432664,14.948071849622682
3571.083,6.727719104264488,16.8666637812034
3571.9065,6.686416782038189,24.672517982422548
3572.7283,6.645749796575268,18.988939940616422
3573.55,6.608838506634243,17.107888256461177
3574.374,6.577910144371024,22.482532023838488
3575.1963,6.55438128669059,21.218547140357707
3576.0208,6.538024863650581,17.10181057863227
3576.8435,6.5272354145273255,18.372062467012324
3577.6682,6.5189738909455865,22.99603603809222
3578.4915,6.509382292371873,20.51772200477304
3579.3145,6.493999753914677,18.28966598529594
3580.14,6.4687876138261675,21.260194327667868
3580.9636,6.43252603064199,19.196153647854583
3581.7893,6.38813192233057,20.51686079006204
3582.6133,6.342905042805135,22.491615269243887
3583.4395,6.305335652578025,22.130904430739026
3584.264,6.2831615997925665,27.460699645497918
3585.0884,6.281154897241643,18.729084601135312
3585.915,6.300959882805908,16.755410991229336
3586.74,6.3401098812499175,22.78044850181686
3587.5671,6.39166446123365,21.323823636024237
3588.3923,6.44387602091551,18.37115160854231
3589.22,6.483814308815657,18.63398797274727
3590.0457,6.501131697028277,16.353071400674413
3590.8716,6.493039002327179,17.497592803785196
3591.6995,6.4644501550182545,18.853251011864067
3592.526,6.42491272233874,19.750013378204414
3593.3542,6.383074024683483,21.472784776874082
3594.181,6.3445504866243265,19.99082704371371
3595.0098,6.312099717064202,21.55670878818185
3595.8367,6.28816761318659,23.84473745588018
3596.6638,6.274274666225884,25.356506090976822
3597.4934,6.269718464351053,22.46565468173648
3598.3208,6.270740006219665,23.75522873691481
3599.1506,6.272048438096807,20.706064050476932
3599.9788,6.26970391255008,18.56768081386091
3600.8088,6.262770876439154,17.585542141597802
3601.6372,6.252350184971229,21.571429550554914
3602.4678,6.238949217150902,18.593660299751836
3603.2964,6.221898508089042,25.555977150382713
3604.1252,6.201590907500865,20.090747638458446
3604.9565,6.182394660021826,32.569690050299045
3605.786,6.17197808416034,23.96282193846866
3606.6172,6.176681944217267,22.040964005224716
3607.447,6.198312057742335,23.81687629912433
3608.2788,6.235447830821475,19.19732384044766
3609.109,6.2890651715063655,21.47217506169087
3609.9392,6.3718894520699365,16.10698773146509
3610.7717,6.51530670022028,21.622225791145887
3611.6023,6.7608387650875965,19.314619238294682
3612.435,7.130162390372407,25.16752664575301
3613.266,7.57207141346756,23.150692747465648
3614.0994,7.9520645427902,24.628842614731465
3614.9307,8.10397146137032,0.3690423564462758
3615.7625,7.944841392869281,22.974798996678377
3616.5962,7.534068357860541,24.00284282393953
3617.4282,7.036396204881897,24.14667983436214
3618.2625,6.60626532824092,21.306817264995708
3619.0947,6.318310931034879,21.74049931164609
3619.9292,6.160536622090887,22.46950929724393
3620.762,6.087195282079931,23.693433335491065
3621.595,6.0561252288016165,19.677133776945684
3622.4302,6.043855134249205,20.004182029223326
3623.2634,6.040658066254136,19.01057204663086
3624.0989,6.042706035766147,21.88862192809833
3624.9326,6.047908896256161,22.465273197887754
3625.7686,6.054493962713983,20.99131515581806
3626.6028,6.060218115574169,23.96932824122019
3627.437,6.062040993839264,20.487320419928523
3628.2734,6.056750544553896,23.242573922165832
3629.1082,6.042955368303636,20.10331989743986
3629.945,6.022443907426913,24.22986945250367
3630.78,5.999701707967597,21.85051679434098
3631.6174,5.97897822520085,28.44695421191353
3632.453,5.962485070355979,23.457213764460196
3633.2883,5.949697040721116,22.363440679600433
3634.1262,5.938669179360932,22.03433559583426
3634.9622,5.927296058350699,23.5438826510597
3635.8005,5.913851492516395,26.05501292801582
3636.637,5.897929939089829,23.470243572798854
3637.4756,5.88066165046333,34.535983452566384
3638.3123,5.864433120947031,26.48865555327797
3639.1492,5.850852284084567,22.59703696807861
3639.9885,5.839432558745099,22.66843878191429
3640.826,5.827848001123853,26.873992211822934
3641.6653,5.813376394422631,23.024523577049564
3642.5032,5.794871732478674,22.381886023272987
3643.343,5.773110115085097,20.85180177912349
3644.1812,5.750378241114808,21.757090002748825
3645.0195,5.728953316871566,24.780973919529355
3645.86,5.710551966576432,20.93258483401903
3646.699,5.696403520420861,24.694690348711188
3647.5398,5.686986203401478,26.49621677960257
3648.379,5.681933398487305,22.520104025806596
3649.2202,5.679534769420119,22.003226496740893
3650.0596,5.677193450487007,26.594261867974573
3650.8994,5.672517311470833,24.428034512068624
3651.7412,5.664567306203632,20.25754123057976
3652.5813,5.654315767116289,26.294907234586866
3653.4236,5.6437075861841,22.74379678710398
3654.2642,5.634532029267163,24.482602286904854
3655.1067,5.62759971529335,21.041355565221448
3655.9475,5.623254060872928,34.552862717405006
3656.7886,5.621669398385316,22.426368607096148
3657.6318,5.622333118605824,22.041533862989045
3658.4734,5.622918111555199,25.772188532535075
3659.317,5.61956736338779,23.513984959053097
3660.1587,5.609511527634065,23.348053760132142
3661.003,5.593959532990769,28.962388157458317
3661.845,5.578428877625683,27.347528410679384
3662.6875,5.568851486391349,27.774548255582943
3663.532,5.567381290103132,37.17704842474978
3664.3748,5.571176921793456,27.879596504466704
3665.2197,5.5755108905120085,25.823292397090746
3666.063,5.578160402502445,25.314046112328466
3666.9084,5.581125494617177,29.603177902842067
3667.752,5.587966974708567,22.398653231218912
3668.5977,5.599461258479747,30.58779271748291
3669.4417,5.611489394767402,22.822234685665254
3670.286,5.617930275132524,20.992592377562282
3671.132,5.615712320200114,30.285620265330294
3671.9768,5.607709037260344,23.2238504224734
3672.8235,5.600630707968395,26.40457779563326
3673.6685,5.600199459788633,30.38602009330313
3674.5156,5.6075968028440135,26.32788911563438
3675.3608,5.619531460356107,24.16072585884228
3676.2063,5.630866371125411,23.166438635627195
3677.0542,5.63711270679977,23.904306928494364
3677.9,5.63561218669959,25.33453129589353
3678.748,5.62561428374224,24.02338718828949
3679.5945,5.607880323276772,28.827851626319518
3680.4429,5.584258138995701,30.232406297781782
3681.2896,5.557899619526134,20.814115256263644
3682.1365,5.532568357268144,29.77145880114475
3682.9856,5.511751307568445,31.328400875496015
3683.8328,5.4975941732876175,28.668937737201375
3684.6824,5.4904005937745755,29.36620361233934
3685.53,5.489839344045544,24.23126484838408
3686.38,5.495381564085795,24.897688210345148
3687.2278,5.505636221694838,28.07160479654375
3688.0762,5.517736797971112,26.184353276586098
3688.9265,5.528371194640867,25.443619353522724
3689.7751,5.53591021819388,25.51657195773629
3690.626,5.5415193241520075,29.151363356955965
3691.475,5.547784433009368,26.279412662112488
3692.3264,5.5567245307064805,27.275638177308075
3693.1758,5.568141789002883,29.143144249070925
3694.0254,5.5794382064068,31.44123843840258
3694.8772,5.586681332466062,22.569614230108318
3695.7273,5.586972147247148,24.38377003442905
3696.5793,5.5805760726688955,24.356070172339148
3697.43,5.57063836739924,22.787567919509254
3698.2825,5.56060765314829,25.960766328372234
3699.1333,5.551813252072243,26.077191794825204
3699.9841,5.542734187032789,28.50397119772613
3700.8374,5.530609085742704,28.84293288569251
3701.6887,5.513966347171876,28.03797096692178
3702.5425,5.493875993913401,26.895730956867446
3703.3943,5.473635729870879,25.78328531164567
3704.2483,5.455995946688262,23.024200519209966
3705.1003,5.441432553145446,26.98684869766203
3705.9526,5.428033289515562,24.894202547658864
3706.8074,5.413901784991065,27.556188431372107
3707.66,5.399151129469035,27.05564092429709
3708.515,5.385237558199953,23.93477222178488
3709.3682,5.37343933728153,30.762619984315542
3710.2234,5.363689258048685,24.80022708470397
3711.0771,5.355329779256322,28.191942092648816
3711.9307,5.347433356926398,26.580612011648793
3712.7866,5.338464637188595,31.203353189422693
3713.6409,5.3263547413142405,21.842637850839974
3714.4973,5.309660415506436,29.45461252917504
3715.3518,5.289362865516519,36.10839214868923
3716.2085,5.268566160968896,23.239376489560808
3717.0635,5.251116822539482,35.99139111320788
3717.9185,5.239119748829461,25.217326482463672
3718.776,5.231932625210319,37.38007815284414
3719.6313,5.226632767334041,26.670313838954055
3720.489,5.219526625612011,31.433393031896443
3721.345,5.207809314444989,30.518444606047595
3722.2031,5.189902810133416,29.153027982764414
3723.0593,5.16581429208966,32.57611803368778
3723.9158,5.137548009790718,31.036033260710354
3724.7747,5.109743532922501,43.52823599288684
3725.6316,5.088646902428664,32.307974744110055
3726.4905,5.078578039724964,35.988527145577294
3727.348,5.079872527539806,35.441314975578265
3728.2073,5.0891954988941,27.371127621322184
3729.065,5.102284393345923,31.060607568622892
3729.9229,5.116112253031955,32.944455024439364
3730.783,5.1283824102147255,28.337521659150372
3731.6414,5.135866726669742,33.12839325890621
3732.5017,5.134654102428081,26.17313472573882
3733.3604,5.12242260617787,31.928375538698972
3734.2214,5.100709731770955,36.37775206860295
3735.0803,5.074887981298783,30.195899093251413
3735.9417,5.050883185484139,29.80202812680615
3736.8013,5.032488606411218,35.22113265611908
3737.661,5.0197844779225,32.88955548162297
3738.5227,5.010578778110678,35.58453079282465
3739.3828,5.002635807624496,31.461976934008632
3740.245,4.995021519126473,31.405311735031066
3741.1055,4.988449957483065,38.249799428471526
3741.9683,4.984528733786516,42.20065426757871
3742.829,4.985008069054065,30.485975074446642
3743.69,4.990715566654895,27.927009651899517
3744.5532,5.00066915302415,35.4224397995296
3745.4148,5.011537632573832,36.545400738141105
3746.2786,5.018621925780704,33.47181097961095
3747.1404,5.017712913349742,31.491049316881778
3748.0044,5.007216061998134,30.869749766454493
3748.8667,4.988847089959562,29.314106604426158
3749.729,4.966447428525414,30.664635657476346
3750.5938,4.944054435912083,38.02165921398043
3751.4565,4.92457941804477,29.620740828220345
3752.3215,4.908819507758996,31.751289679332658
3753.1848,4.896051469755603,30.619300312367436
3754.0503,4.884522694070264,33.003222545489876
3754.9138,4.872899949710466,31.10963488725975
3755.7776,4.861219882598738,34.75951150303134
3756.6438,4.851220042883943,36.085577063771595
3757.508,4.845232671397438,36.0356010276056
3758.3745,4.844137854852273,41.594183100760034
3759.239,4.8464710565080225,35.779516206090285
3760.106,4.849248446375039,41.07757503289057
3760.971,4.84989119021166,44.61162017947859
3761.8362,4.847518449169851,34.14823880809466
3762.7036,4.842617354117279,34.91467964102572
3763.5693,4.8360789529120325,29.852636021839203
3764.437,4.828618539363837,38.721595556910614
3765.3032,4.821223650938188,33.696040353107016
3766.1714,4.815461621737372,37.53806674047045
3767.0378,4.813178984703902,34.14631267488002
3767.9043,4.815131727992759,34.902864668454754
3768.7732,4.819907525514213,42.04064445672913
3769.6401,4.824174804400102,30.26282971576742
3770.5095,4.824893917221458,34.832251465596194
3771.377,4.821651396475858,30.342912243023335
3772.2466,4.816936319627878,41.59362647100621
3773.1145,4.813744360972891,32.27825345263524
3773.9824,4.812662562570915,30.778816393081165
3774.8528,4.811396477765025,42.84179529031011
3775.721,4.80681977882967,34.94783708954117
3776.5918,4.797388520602785,32.75617141146444
3777.4604,4.784235204259292,51.34336221210319
3778.3315,4.770234634184611,46.81793888610001
3779.201,4.758516252949451,38.21532504551593
3780.0703,4.75040818987363,38.37656856853121
3780.942,4.744640410550224,39.74666650008766
3781.8118,4.7381823925315185,35.16802949052639
3782.6838,4.728422800971557,39.71373115515537
3783.554,4.715533395254666,42.75258643119366
3784.4265,4.702709107073609,34.657484681676
3785.297,4.694454802309419,34.65964634423382
3786.168,4.693149565794784,34.55086548332187
3787.041,4.696992325722001,36.94731176109184
3787.912,4.700685110921088,32.51242372229362
3788.7856,4.698981713370374,36.41461385590424
3789.6572,4.689982083967947,39.546947611713364
3790.531,4.675344765775778,42.33985884236726
3791.403,4.658018175346732,40.25144493811899
3792.2754,4.63998493729969,36.29291128811527
3793.15,4.622566884192507,39.59857886624237
3794.0225,4.607758886734174,35.250499031152664
3794.8972,4.5978238514445,38.05915535017326
3795.7703,4.593844883188424,38.413440658775436
3796.6455,4.594227568139022,38.12624516814921
3797.519,4.595497730760503,41.19428954721042
3798.3926,4.594679613177913,34.48410052002708
3799.2686,4.5915759172207125,37.014916679455496
3800.1426,4.589301509516515,41.68388582094228
3801.0188,4.592487479278405,33.74717060471508
3801.8933,4.604363621679213,40.71607995495985
3802.77,4.624663756922817,42.09931874774956
3803.6448,4.649183038035018,35.365466689255385
3804.522,4.671634332571383,35.90545288276015
3805.3972,4.685490508099291,30.522840195196164
3806.2727,4.686606104954041,37.908304570968824
3807.1504,4.674543034183707,37.41511845876276
3808.0261,4.653053017115383,52.805106291352125
3808.9043,4.628284258385628,38.44043343365645
3809.7805,4.606377447284129,38.33960437258388
3810.659,4.590545352482497,35.25718883898037
3811.5356,4.580564761040227,38.69956168718258
3812.4126,4.573417558978422,41.7436521763308
3813.2917,4.565427216020175,36.770963856694685
3814.169,4.554400527473402,48.104279775743116
3815.0483,4.5407036464423385,40.07518779474719
3815.926,4.5267736263439895,37.60123985431081
3816.806,4.514065854693202,39.627194330878844
3817.684,4.499927462860111,42.89602965321078
3818.5623,4.476564829468997,38.73112535445042
3819.4429,4.43492028773829,39.96301174565591
3820.3215,4.372862567716392,45.68025453402029
3821.2024,4.300854631692186,41.650593939497405
3822.0815,4.241204896619085,43.394197733402564
3822.963,4.214891412928558,63.30157866630049
3823.8423,4.228024071646182,38.8907084869982
3824.722,4.267260533602538,40.69582544077762
3825.604,4.310164029373772,38.54819403083123
3826.4841,4.339091471588243,41.338363038650435
3827.3665,4.349042764821071,46.577397346566116
3828.2468,4.344445231831153,39.730659528359396
3829.1296,4.33262627815287,46.17997098477556
3830.0105,4.319040973311973,39.90285535338191
3830.8916,4.305875795528356,43.475187250881085
3831.7751,4.293072282248162,45.38595822638232
3832.6565,4.2799112312345855,41.56954515593093
3833.5403,4.265907057228465,44.970218056517886
3834.4224,4.251557353256656,45.918071615884486
3835.3064,4.237906592776459,43.18886652576895
3836.1887,4.226202921698689,40.25681919990279
3837.0713,4.217209993444977,45.40469381532627
3837.956,4.211375470475721,52.785822008567834
3838.839,4.209357465503244,46.137048814357875
3839.7244,4.21219171881609,52.30228808223453
3840.6077,4.2206235845504985,44.58402796286448
3841.4932,4.233974053996284,46.6433959832336
3842.377,4.249600350437084,46.214777720968655
3843.261,4.264265216201547,42.195653410493904
3844.1472,4.276037041972987,42.46959896737158
3845.0315,4.2852767337516,51.16458435765865
3845.9182,4.293943293877342,53.52898614362688
3846.803,4.303369783464077,44.69204634667855
3847.69,4.313105993541951,44.62373270329085
3848.5752,4.321224695019167,39.013962638012984
3849.4604,4.32627652610527,37.75726534377241
3850.3481,4.3287529007744565,40.67411101132413
3851.234,4.3309405413512305,45.421079949941635
3852.122,4.335026858525905,43.20362003820472
3853.0083,4.340881888748263,44.42561883309915
3853.8967,4.345880532034421,42.87193139848091
3854.7832,4.346987416259144,41.59994436241618
3855.6702,4.343618282531417,41.595288261599016
3856.559,4.3384407149093205,41.55249040851881
3857.4463,4.335482507030274,45.45818235895257
3858.336,4.336801914248833,48.0365097287476
3859.2234,4.340678029256794,37.761152840839024
3860.1135,4.342866160601055,45.19118193015579
3861.0015,4.339892783768268,38.716200942528864
3861.8896,4.331681519023994,47.58342265126669
3862.7803,4.321313195454633,42.791905435471044
3863.6687,4.312760156953017,47.54948164966359
3864.5598,4.308240195689725,43.459306969058346
3865.4487,4.307428145520324,47.85345542484603
3866.34,4.308034727513552,41.683102514740455
3867.2297,4.307300425601192,39.26650184462936
3868.1213,4.3031785124817,41.30223644677975
3869.0112,4.2946498252246625,44.95860024234419
3869.9014,4.28111808971445,42.311879187472584
3870.7937,4.261847439493955,45.81130957745062
3871.684,4.236384824172266,44.21828546054641
3872.577,4.204914276625755,54.211132860480625
3873.4678,4.168898097856304,37.472218736558546
3874.361,4.129723963269433,53.933040462266774
3875.2524,4.088711656820609,48.524448951823985
3876.1438,4.046811294246795,44.0700975234995
3877.0376,4.00582662713481,48.09776639908778
3877.9297,3.9690090440729566,53.47710605301772
3878.8237,3.939236202199729,53.389010994879456
3879.716,3.9176959804352194,56.677919982490195
3880.6108,3.9021654358086084,56.015475131905774
3881.5037,3.887865134342998,46.32563691417049
3882.3965,3.8693774294807644,53.67198726417465
3883.2917,3.843569289182999,58.37806710909814
3884.185,3.811512459112591,52.883104780327926
3885.0808,3.777206497128201,51.10869934023223
3885.9746,3.745391884240084,63.559587016959085
3886.8706,3.718324380061141,55.59821537484136
3887.765,3.6958300851365875,59.78891181030109
3888.6592,3.676527202771778,52.927644401519345
3889.556,3.6601943981223104,56.770659807263044
3890.4507,3.648806115708013,62.860909232736205
3891.348,3.645440796694169,66.93747233363072
3892.243,3.6526039545018736,71.17952294464015
3893.1406,3.6705792497892276,53.25679228141541
3894.0361,3.696937328784361,54.16194075350798
3894.932,3.7280202540454406,57.14103202134658
3895.83,3.7607417798879608,57.529788808582204
3896.7263,3.793414253913341,52.77042264806977
3897.625,3.8258823890992653,62.787601640682865
3898.5215,3.8576804693293623,52.77485909067432
3899.4207,3.8882040380458993,57.48392831976992
3900.3176,3.916603490402912,53.51562737877886
3901.2148,3.942898598002687,48.50906769729112
3902.1145,3.967347340618383,35.64959324449423
3903.0122,3.9897606174591194,52.14038863445577
3903.912,4.010253407661921,46.98675845339442
3904.8103,4.029764471133952,43.45869957582034
3905.7107,4.0505850908936845,45.141836458506496
3906.6094,4.0748196042799645,44.66196377722043
3907.508,4.103233167607328,51.04985484458852
3908.409,4.134826201306691,48.43647234777503
3909.308,4.167517922815616,42.7238578480646
3910.2097,4.199847478198325,49.10767112674367
3911.1091,4.230806955483062,49.289731522601926
3912.011,4.259997025089256,50.40593867436556
3912.9111,4.286211477857021,43.601050405762884
3913.8113,4.307556976346785,42.98787027420963
3914.7136,4.321788508395689,40.614406413980255
3915.6143,4.3276625316977695,36.66379217427006
3916.517,4.326462293841919,45.41419282099515
3917.4182,4.321837823211644,51.30830322570141
3918.3215,4.318019138784094,44.356072551832604
3919.223,4.317546586643035,45.227800913301614
3920.1245,4.320221356524301,46.8561724645901
3921.0286,4.324058972961108,42.84462335586522
3921.9307,4.326870244298247,41.566312588831984
3922.835,4.3273022906215335,44.96590689215975
3923.7373,4.324971776720576,45.194327897934016
3924.642,4.320544991471738,37.18889615088479
3925.5452,4.315912042043105,52.27107335657563
3926.448,4.3136733639190465,48.22768055218969
3927.3535,4.315856306760428,40.9229323094607
3928.257,4.322507565899259,52.411334447243405
3929.1628,4.3315607090806445,43.984357340756745
3930.0667,4.340101575138745,44.97979637237203
3930.9731,4.346377852511715,43.17722457997435
3931.8774,4.350441620654868,48.05400468696007
3932.782,4.3533067182940535,46.3400718238776
3933.6887,4.355044927701863,44.74097106482367
3934.5938,4.3538267929450765,48.990915378463775
3935.501,4.346817746904495,38.26588671685335
3936.4062,4.332213279405765,41.932937582936056
3937.3142,4.310296100765942,44.44620847146013
3938.22,4.283179823409495,43.61026997560082
3939.128,4.252869027135217,40.987909323400714
3940.0342,4.220866855299054,41.46033057743709
