wavl,flux,ivar
3566.9744,6.009702852452922,54.208139770616384
3567.795,6.019649054109082,50.723263766825625
3568.6177,6.02748558398005,42.34919571373854
3569.4385,6.02954224530454,39.237647618036455
3570.2617,6.025486510400493,47.00861993439993
3571.083,6.01757645620888,38.14798966000231
3571.9065,6.0088510471111025,49.81891017448356
3572.7283,6.001337264309764,60.958124714970864
3573.55,5.994736329836307,41.904376249346356
3574.374,5.98728153300568,43.89123600072898
3575.1963,5.978571818833461,40.62272941980406
3576.0208,5.971614584067576,43.95512386938138
3576.8435,5.971477197978124,46.06300012066031
3577.6682,5.9805662160196835,51.62041279560003
3578.4915,5.995210006876839,50.95794634234233
3579.3145,6.007343778098946,46.3733500683264
3580.14,6.009905906803163,44.358447144261945
3580.9636,6.001129275832463,39.75645888751643
3581.7893,5.984118010721542,45.5370234858899
3582.6133,5.96292464066087,45.985624753283126
3583.4395,5.938907520667075,42.34549100638596
3584.264,5.911231326821114,38.969372870973224
3585.0884,5.879178425869359,40.47482197251947
3585.915,5.844483985844731,48.47048515021578
3586.74,5.811527184924593,57.80412602220802
3587.5671,5.784950486986395,49.161991212999766
3588.3923,5.768651518307206,55.343955758181316
3589.22,5.764914230985283,51.307471472946034
3590.0457,5.7746308626411516,45.83379870892226
3590.8716,5.796190111813265,60.694305556737476
3591.6995,5.8243549962119054,41.76148805768605
3592.526,5.850537899977323,40.43575972215642
3593.3542,5.8666128022390325,45.369496261609044
3594.181,5.8690031055803455,44.78603755963172
3595.0098,5.8610766251689865,41.222570247238856
3595.8367,5.851197510410482,38.48036941184051
3596.6638,5.8477422339572245,55.928289362967945
3597.4934,5.854293316549026,37.748492671436395
3598.3208,5.867543137327462,38.16337231075286
3599.1506,5.879532415129516,43.4818911755101
3599.9788,5.881950230903654,45.11323805877606
3600.8088,5.870375777382162,44.04119616826598
3601.6372,5.846127640881305,49.7692883304467
3602.4678,5.81541006462245,45.33978501660288
3603.2964,5.7869053892589735,39.581091110627675
3604.1252,5.767279432817595,46.25496860327013
3604.9565,5.758386732722875,46.00734661385638
3605.786,5.757054423126681,53.07447848551034
3606.6172,5.757828466556444,62.740448287430205
3607.447,5.756841501383809,55.60131267956154
3608.2788,5.753770144416872,42.957303720613076
3609.109,5.750945726440767,46.1570484589044
3609.9392,5.750589566012725,48.62573770996225
3610.7717,5.7525815355800525,43.012032675295394
3611.6023,5.754332713363378,43.05065477469691
3612.435,5.75289200201945,41.62762180850457
3613.266,5.747498828776714,45.52663987509931
3614.0994,5.74040933911831,38.803870858409226
3614.9307,5.735244803726302,51.23519151758418
3615.7625,5.734019400106521,50.13637445400035
3616.5962,5.735902647861812,44.33883035864409
3617.4282,5.738452814401458,52.55312521234645
3618.2625,5.739852634177716,50.763796884862444
3619.0947,5.73968111020032,51.219429497015405
3619.9292,5.7380538216194825,47.402516275416566
3620.762,5.73459259842139,45.279837551554635
3621.595,5.728375023673264,56.98534430029777
3622.4302,5.718721022730027,51.39211402568941
3623.2634,5.7062457591810025,51.23521278256336
3624.0989,5.693214545966922,50.275191783968594
3624.9326,5.683345972994769,45.319448467446776
3625.7686,5.679910700459454,46.53540151253428
3626.6028,5.683589428335583,51.920840904070396
3627.437,5.6912433880319355,53.280749423306005
3628.2734,5.697320866979526,56.15501236847742
3629.1082,5.697058678037705,45.85445066507734
3629.945,5.68959832193356,56.18572745932109
3630.78,5.678613161293134,46.10053505799041
3631.6174,5.66969091569386,55.00291141435363
3632.453,5.6665117824234805,48.69291387013663
3633.2883,5.668258840706824,47.95022226216171
3634.1262,5.67085380470925,65.17476788270893
3634.9622,5.670407070174027,46.195555809613026
3635.8005,5.665983872913852,59.441483594019026
3636.637,5.6595318509745365,47.96126814264051
3637.4756,5.653674576395215,57.30148940847953
3638.3123,5.649913110584969,50.06640112050139
3639.1492,5.648196426075051,53.325451775242286
3639.9885,5.647706115187362,54.11859244519473
3640.826,5.647451813874844,53.41379537344877
3641.6653,5.646477668583692,53.355861663454164
3642.5032,5.644186037194097,44.513777540931116
3643.343,5.640834513105671,41.58504862013169
3644.1812,5.637699017359908,43.41360804003123
3645.0195,5.636376248055188,48.009133941431024
3645.86,5.637796134462466,44.561822693446736
3646.699,5.641435658778302,54.072963454535724
3647.5398,5.645191655450864,46.931341447905695
3648.379,5.645967860323707,45.318139495665214
3649.2202,5.641196423017997,61.37915850741357
3650.0596,5.630652368527254,48.36960885704314
3650.8994,5.61722595789496,51.86706044600351
3651.7412,5.605831313460763,46.318270764927746
3652.5813,5.6007767307416385,52.59677289641718
3653.4236,5.6030647012085115,53.97542776944184
3654.2642,5.60991787014047,44.77479007687205
3655.1067,5.616710420663769,44.10930386166821
3655.9475,5.619763427398349,44.342241837674955
3656.7886,5.617880697390214,41.189811271660794
3657.6318,5.611256505178844,49.5928696239136
3658.4734,5.599685669478126,47.90980100458248
3659.317,5.5822625583451675,43.266327437335086
3660.1587,5.559632402309686,51.89567127329059
3661.003,5.535302427831137,59.32880712572179
3661.845,5.514646112545898,46.146752856210945
3662.6875,5.50108237710651,56.07972051624867
3663.532,5.494605684256148,56.90265788576742
3664.3748,5.492960557277919,50.31159523547558
3665.2197,5.493485284303671,52.7625155658459
3666.063,5.493406259144286,45.151921551465264
3666.9084,5.489363314647551,54.2282071060711
3667.752,5.47872338505201,45.54897384610543
3668.5977,5.462206207234617,49.79257713981237
3669.4417,5.445025405702114,59.34332470223388
3670.286,5.433823994086333,54.09216229224531
3671.132,5.432422982740791,48.12591197951667
3671.9768,5.439669201904857,62.248755590176366
3672.8235,5.450849935203113,47.533547616679684
3673.6685,5.4604476832738795,66.02210176459631
3674.5156,5.464390213822464,55.99186985735823
3675.3608,5.460995693570085,44.789169916050774
3676.2063,5.4513819328545114,51.047710841918956
3677.0542,5.438654718937854,48.27566900972659
3677.9,5.426380409772759,57.435563678649224
3678.748,5.416763511923031,51.00621099543967
3679.5945,5.410352813985552,55.153354262518974
3680.4429,5.406247494082139,54.79236450297716
3681.2896,5.403029444000599,60.900090595833674
3682.1365,5.399532461249082,50.392699568583915
3682.9856,5.395216818260318,57.33347613721138
3683.8328,5.389748720108848,52.1074196071568
3684.6824,5.382387332363762,55.70905409622873
3685.53,5.37250443505674,49.01833573373848
3686.38,5.360493872173294,48.92789174234018
3687.2278,5.348441267346432,55.026647006340326
3688.0762,5.339249471799407,55.39894729408407
3688.9265,5.335515568453029,63.320991375457304
3689.7751,5.338501218429821,57.42886604952383
3690.626,5.3477402296926,51.740441406474346
3691.475,5.361110649746007,48.67389777019572
3692.3264,5.3753715262003094,52.02062075485924
3693.1758,5.386635980608208,50.68438140590218
3694.0254,5.391749974668395,58.79029939904067
3694.8772,5.389391238878417,54.96490658480999
3695.7273,5.380606391064006,45.51617001025544
3696.5793,5.367764378051739,54.39904491166385
3697.43,5.35289518167897,55.860525361740336
3698.2825,5.336575803648265,46.7909565084591
3699.1333,5.318986963449537,61.988319107816395
3699.9841,5.301108208950029,51.50090037470028
3700.8374,5.284902446263022,54.004631583814756
3701.6887,5.271936081102332,51.29890748395724
3702.5425,5.26177548273474,52.410223549414866
3703.3943,5.252859855841576,66.58119376152473
3704.2483,5.244232083360163,52.60132062141447
3705.1003,5.236792783557206,56.10124516288453
3705.9526,5.232069496361503,55.6404963961631
3706.8074,5.230218479267305,57.87008748685297
3707.66,5.229094673518469,62.657218786262476
3708.515,5.22547666522379,53.316417523998844
3709.3682,5.217578576686904,53.94427461884808
3710.2234,5.206635807623954,65.22455517170756
3711.0771,5.19652245703989,53.30454994291066
3711.9307,5.1911326874844255,57.37950480563621
3712.7866,5.1915954952957915,50.71439522002859
3713.6409,5.195051447664355,53.73037693109506
3714.4973,5.1962609877639885,51.466172196925584
3715.3518,5.191022661558697,56.2374108198439
3716.2085,5.178738898213437,59.15061510507753
3717.0635,5.162424212956802,49.041209046489584
3717.9185,5.146317608698143,53.719403371765296
3718.776,5.133464084620473,57.51593421316915
3719.6313,5.12451210162028,62.61280742094218
3720.489,5.117786357757369,58.918447914733896
3721.345,5.111029494401372,59.17817918699905
3722.2031,5.102894994094683,57.783526711796064
3723.0593,5.093592510720366,50.77403691808508
3723.9158,5.084078377950795,56.84142207202653
3724.7747,5.075417681025062,67.43825789824328
3725.6316,5.0689291454112855,64.50824288460896
3726.4905,5.066354764015162,55.46134553907171
3727.348,5.0695302002742215,59.83399027278952
3728.2073,5.079152347959333,62.319194939796844
3729.065,5.09369304416939,56.08307939777206
3729.9229,5.109467658270879,60.08561729180676
3730.783,5.121603722331832,58.94469229333677
3731.6414,5.1256856054153825,58.57669451687078
3732.5017,5.1196955870233385,61.225415135242734
3733.3604,5.104960333349531,54.0075213663495
3734.2214,5.085739343862856,64.45445918690135
3735.0803,5.067938031998458,65.77932394130248
3735.9417,5.056463344166357,68.90363823616333
3736.8013,5.053431418059372,61.992977887572735
3737.661,5.057272675712482,68.64766189857143
3738.5227,5.064255770101776,65.10145319734825
3739.3828,5.070694997623602,61.76831875643912
3740.245,5.0745537978479565,61.91754922588812
3741.1055,5.075445196071853,55.807077870329856
3741.9683,5.074077068898189,60.58653435845905
3742.829,5.071489668027218,60.92260533615657
3743.69,5.068236895349395,60.60195949775499
3744.5532,5.063750042963128,63.76717810374252
3745.4148,5.056526322236039,59.48905244427983
3746.2786,5.045070496452469,55.696254984463074
3747.1404,5.029169373519883,64.82191677235082
3748.0044,5.009942566378671,64.37180837330588
3748.8667,4.989563781939259,59.289402243012816
3749.729,4.970462668024453,54.79869916505548
3750.5938,4.955423471917951,67.35022165449985
3751.4565,4.947422415442868,65.15482749510625
3752.3215,4.948136593521165,64.24455291587243
3753.1848,4.956611484786105,66.6854858614548
3754.0503,4.969139381754281,61.832338645585246
3754.9138,4.980844994054172,57.88746745170156
3755.7776,4.988166433118596,66.47104058226644
3756.6438,4.990066933978504,52.61814113744255
3757.508,4.987933193788033,63.49731931315951
3758.3745,4.984452005979398,65.0387609849788
3759.239,4.982046960237609,67.74282666201317
3760.106,4.981299247938802,66.08069197670987
3760.971,4.980276133033768,61.725328556372915
3761.8362,4.97554307275372,61.225569494126326
3762.7036,4.964643095507967,60.97121156979817
3763.5693,4.948205156276452,62.69423525460664
3764.437,4.929274752963169,70.06574436875118
3765.3032,4.910975186713608,64.89157838250787
3766.1714,4.894057829031075,59.660452708597944
3767.0378,4.877249799506491,71.33956492792225
3767.9043,4.858755724430776,62.599579362249045
3768.7732,4.838042895881861,67.75988529975994
3769.6401,4.816766293679573,60.82288036494283
3770.5095,4.798174060213355,67.95553674966858
3771.377,4.786427744105017,67.68872042024672
3772.2466,4.784501598228926,68.77374112990833
3773.1145,4.792733044839362,69.15788114694485
3773.9824,4.8084130375569245,72.50972038474856
3774.8528,4.827304376461219,68.98721095909629
3775.721,4.845565803000736,70.82731124215607
3776.5918,4.861550546581943,71.56540680309051
3777.4604,4.875473769301617,58.58372030401554
3778.3315,4.888684242086914,55.598249842918655
3779.201,4.901898505174245,64.83378605345213
3780.0703,4.914565118520717,65.47375813939392
3780.942,4.925148637043254,67.83260342090463
3781.8118,4.932258957780449,63.313678515506346
3782.6838,4.935509574813533,64.25702516770914
3783.554,4.934799716912248,73.68963174664886
3784.4265,4.92930019291555,63.9850646028531
3785.297,4.917518296720347,65.30019867068059
3786.168,4.898765572910373,69.61611625525072
3787.041,4.874764467248935,69.02859243857507
3787.912,4.8497972061984065,74.32516150200067
3788.7856,4.828122549898028,70.07352508752892
3789.6572,4.811573790041174,76.24286705546346
3790.531,4.797656894673568,67.6700937252347
3791.403,4.780903732476684,63.69030001982543
3792.2754,4.755541715348883,55.84692827006005
3793.15,4.718490428050402,73.88504623007547
3794.0225,4.671079750310871,68.73816465745733
3794.8972,4.6178674343134185,75.6709010696132
3795.7703,4.565902606304207,78.60703033090158
3796.6455,4.522036212763219,77.72058841586897
3797.519,4.492041793751262,82.45682448199554
3798.3926,4.478543347525154,85.13144309238808
3799.2686,4.48119918001789,94.23474774216795
3800.1426,4.497673151115049,77.34595156534662
3801.0188,4.525447106201196,84.28321659275517
3801.8933,4.562388007383721,64.65157394720656
3802.77,4.606545055652321,81.25012750512562
3803.6448,4.654350610581552,77.60919170995884
3804.522,4.701477787869638,70.66765055928546
3805.3972,4.7434934767853445,67.20034749718887
3806.2727,4.7781866762490575,70.47504927838115
3807.1504,4.8051267894748335,64.26932924153651
3808.0261,4.824555742663974,50.68907577039918
3808.9043,4.837280905331047,66.25420468077421
3809.7805,4.844639453046608,69.37503523932725
3810.659,4.849022547819833,64.7968737908041
3811.5356,4.853021774754047,61.65684609479309
3812.4126,4.858087598152156,65.11199327270542
3813.2917,4.863309567732873,68.66138555224158
3814.169,4.865571504349555,64.22305773000039
3815.0483,4.861558920714546,60.32748929448999
3815.926,4.850249433006246,68.43979153951838
3816.806,4.833855020865485,71.29915338842554
3817.684,4.816606088159318,68.45180599362922
3818.5623,4.801983003737635,75.11580085827752
3819.4429,4.791166305840006,66.65910334084495
3820.3215,4.783047466912583,67.71676027387952
3821.2024,4.774807209510503,71.36944530645441
3822.0815,4.7630691082857926,78.87449035023695
3822.963,4.7450265016479305,66.04607722849099
3823.8423,4.720143774426473,61.797427369700856
3824.722,4.69032917495692,80.10686676207942
3825.604,4.65855929499995,78.77628690446844
3826.4841,4.626700087943434,79.21683873079773
3827.3665,4.593586849037225,72.60872349958412
3828.2468,4.5565441164459255,75.21225505742524
3829.1296,4.51281526391418,85.52416864920825
3830.0105,4.461582310107887,77.28028863676992
3830.8916,4.402898076771576,91.96160687193095
3831.7751,4.33715866624008,82.05180944796805
3832.6565,4.2661377886824345,89.36867153540551
3833.5403,4.193630685920571,76.33151114492193
3834.4224,4.128367997584666,107.38987759055141
3835.3064,4.081450290557502,107.08643834312382
3836.1887,4.062797910763034,113.98240330256861
3837.0713,4.075264267349455,126.17774128276467
3837.956,4.113542346319755,105.49134137637834
3838.839,4.167048867732771,84.09706762900174
3839.7244,4.226323664774319,107.57400453790035
3840.6077,4.28574098034949,84.54266732627458
3841.4932,4.3440266867326,77.59298185061452
3842.377,4.400525723009842,72.86234027519666
3843.261,4.45443633936654,74.68657031323661
3844.1472,4.504609489558612,73.07041033699976
3845.0315,4.55007087534938,71.2596554478807
3845.9182,4.5910756694554244,62.91808747462177
3846.803,4.62794845573145,66.3136925792881
3847.69,4.661594526016138,72.84492280802962
3848.5752,4.692518220700074,67.81718583347477
3849.4604,4.7210537313254415,72.88297286086757
3850.3481,4.7470647583690315,70.11174548833978
3851.234,4.770039220132851,71.09366624467545
3852.122,4.789826008957404,77.64842722746414
3853.0083,4.8060237177292,70.72624470717999
3853.8967,4.817955756695928,68.11144676760048
3854.7832,4.824473019370027,62.743803812898136
3855.6702,4.82510914063256,59.71983204037335
3856.559,4.820968771294647,66.00678521381852
3857.4463,4.814919576641291,61.90668721662281
3858.336,4.810581816277009,65.66826778957689
3859.2234,4.811089031202177,66.2116080832487
3860.1135,4.818022748263905,66.04018428193733
3861.0015,4.83097767695324,67.22117260619413
3861.8896,4.8478925941798074,81.67483160029967
3862.7803,4.865646132130918,63.46424900046603
3863.6687,4.88055056651815,63.40899691997402
3864.5598,4.889332361913409,64.74949644551381
3865.4487,4.889541307095863,59.07640090897418
3866.34,4.880151811700894,68.28905249431796
3867.2297,4.861428962807428,74.4886016817172
3868.1213,4.834251507120391,66.7706568648849
3869.0112,4.800051232892715,58.79288284454931
3869.9014,4.760566706237492,73.94378176636032
3870.7937,4.7181206274427625,67.59211217469486
3871.684,4.675490996327545,82.2613009635151
3872.577,4.634064239782134,73.03449708440318
3873.4678,4.59368208235956,73.57493161805951
3874.361,4.552043844095908,76.27225092942902
3875.2524,4.507020801186971,85.91898797214732
3876.1438,4.457611464699735,77.23246320770778
3877.0376,4.4046631605791635,70.49958021482192
3877.9297,4.350432585859357,80.21418976398694
3878.8237,4.296346277273942,75.16699133536686
3879.716,4.242944656455821,77.82629831112354
3880.6108,4.188640461000544,92.81426644504401
3881.5037,4.130984691606544,105.01130584249816
3882.3965,4.0667681503521855,83.84019176653382
3883.2917,3.993714628292227,86.70214477212625
3884.185,3.911947830965447,103.06774400076729
3885.0808,3.822309516444793,96.83453230840293
3885.9746,3.7273312736208695,100.33043337615041
3886.8706,3.630184526034297,108.04692796994932
3887.765,3.538368963585042,132.45944793544788
3888.6592,3.463274823760469,144.36180239738135
3889.556,3.4185968337833814,162.64577372807722
3890.4507,3.4150818593993235,180.64915073852148
3891.348,3.4546287340089394,120.86495027989248
3892.243,3.5290317685451047,139.71355261225466
3893.1406,3.6243778227984063,122.07371658697241
3894.0361,3.7255241477839385,114.02072952350076
3894.932,3.8225140912689444,98.15925001546586
3895.83,3.9113891845853987,100.69677817549164
3896.7263,3.992301119107114,96.96404571003998
3897.625,4.068187431916229,104.15200902677039
3898.5215,4.140604490280024,88.74996502612403
3899.4207,4.210286454104557,87.78503593230276
3900.3176,4.276037194363082,87.33606826379241
3901.2148,4.3370615291815895,86.19541183957953
3902.1145,4.3930660233488,89.24341106989122
3903.0122,4.44419568460802,84.30041609066835
3903.912,4.491737688607162,74.65927419822096
3904.8103,4.536486385704707,84.94811310335044
3905.7107,4.578879543867915,70.7600832261661
3906.6094,4.618124593831268,84.13141796910215
3907.508,4.653608529728586,66.2725919799799
3908.409,4.685657285907563,73.65209556576973
3909.308,4.715672882858113,70.85989381049882
3910.2097,4.745796311661573,62.324211354345664
3911.1091,4.776891389538758,79.69236788589681
3912.011,4.808295100863064,63.76630288628378
3912.9111,4.83755947220753,71.8132598634505
3913.8113,4.862223457230149,66.25484786206889
3914.7136,4.880909506654532,67.82750746368407
3915.6143,4.893868317872909,61.3613216972485
3916.517,4.90285728514617,63.5324070428142
3917.4182,4.9098250759460775,68.04890630323244
3918.3215,4.916188042800375,62.91893870039362
3919.223,4.922535981403037,70.30022051952812
3920.1245,4.92910310517039,64.81653193450006
3921.0286,4.936098560929437,66.50328545589093
3921.9307,4.9438257947185384,64.45436529181569
3922.835,4.952819205063969,57.884567807593534
3923.7373,4.963583712943003,55.125142434316786
3924.642,4.97646941689879,63.91941225135382
3925.5452,4.9909297672085495,66.34296451313465
3926.448,5.005251798032829,58.26747766068239
3927.3535,5.01678979503903,58.04871993704642
3928.257,5.023062630909968,66.39491509831336
3929.1628,5.02310687034042,58.94402943405871
3930.0667,5.017309609481796,59.471046788352375
3930.9731,5.006377957177885,59.506314031432815
3931.8774,4.990881635040291,63.89883063484918
3932.782,4.9716513640875855,66.37506861999066
3933.6887,4.950631755344675,64.59223155131184
3934.5938,4.930736110305799,67.81756350918651
3935.501,4.914086189160718,54.68731429824709
3936.4062,4.901047175172844,66.61132714944397
3937.3142,4.889925660492825,74.84729437969023
3938.22,4.87836723063399,62.531577879423025
3939.128,4.864291385305704,64.04557336079984
3940.0342,4.8466758764352615,66.52531690108135
3940.9407,4.825392059617847,66.20327622662182
3941.8494,4.801177224989001,63.765653384935526
