wavl,flux,ivar
3566.9744,2.278774012427582,28.524807814108236
3567.795,2.276407671979785,25.251989797362924
3568.6177,2.2686132581498426,40.399467675153545
3569.4385,2.2571993841794757,32.48904140563456
3570.2617,2.2466294271230685,32.77614766211282
3571.083,2.2406343264940918,29.87622767849918
3571.9065,2.2386429776053762,23.43062871895956
3572.7283,2.236048096370421,36.347237094482956
3573.55,2.2277162836741837,22.992042857471965
3574.374,2.2115713510577466,31.227852146606956
3575.1963,2.189494927409449,20.389766128212404
3576.0208,2.164983324282982,49.722904667312186
3576.8435,2.1410603690501553,37.975573932621636
3577.6682,2.118836670876662,27.348517780410525
3578.4915,2.098366607921542,36.804646871159996
3579.3145,2.0792880014536466,38.09350350906235
3580.14,2.0618687221449163,61.444968948107274
3580.9636,2.047768182094488,25.832751219122688
3581.7893,2.0394125867465385,45.29508524991808
3582.6133,2.0388536726857267,27.737441860959628
3583.4395,2.04634240668417,32.386214529703466
3584.264,2.0603761806316054,50.82557161055047
3585.0884,2.0789726166721745,47.0535342697519
3585.915,2.100694950110282,30.92252559995925
3586.74,2.124454813299566,25.619116236060812
3587.5671,2.149305260256239,37.5864664772612
3588.3923,2.1735184689512046,26.071360062682224
3589.22,2.1950170535064606,31.766926416830675
3590.0457,2.211292381697516,29.1757272397853
3590.8716,2.2205154564095797,29.367861854328837
3591.6995,2.2219567440332924,52.9504469446689
3592.526,2.2164084854759665,40.06147495144751
3593.3542,2.206185368509934,22.803540296850983
3594.181,2.1948862121535155,28.94210570773415
3595.0098,2.1862948475867165,39.88396612499591
3595.8367,2.1828796474091314,42.36897925452542
3596.6638,2.1843627578032674,56.65722132193842
3597.4934,2.1885230364118424,28.03921844066706
3598.3208,2.193475602410589,47.524073473914875
3599.1506,2.1992185883316355,34.84814937041737
3599.9788,2.206270124552685,25.62306336591086
3600.8088,2.213323652717056,35.03565855600205
3601.6372,2.2165165088103747,30.31350883305393
3602.4678,2.2116838037907662,50.760653268596315
3603.2964,2.1974192498434824,87.69075282237554
3604.1252,2.176423103549331,27.69159213248294
3604.9565,2.153934376940841,41.37414162948035
3605.786,2.134390063212686,31.77587652786446
3606.6172,2.118424300881474,33.6236604112021
3607.447,2.104403991113595,38.55404455333893
3608.2788,2.0920962265876963,23.559064823448846
3609.109,2.0850996390770655,47.13262346292483
3609.9392,2.0882022602311854,36.12911037243956
3610.7717,2.102984284052094,36.60879924514003
3611.6023,2.125766287298638,42.3218013477716
3612.435,2.150266874433768,47.220841573309556
3613.266,2.170654284108519,27.35620541311536
3614.0994,2.183021790348913,49.28417169544388
3614.9307,2.184148839757977,27.205007402940183
3615.7625,2.171804318000024,27.191333670966536
3616.5962,2.1467365130155893,59.9110863775337
3617.4282,2.114986318839553,35.879737301780764
3618.2625,2.0862922421322865,38.97389821175177
3619.0947,2.0700707494395263,38.366079438420755
3619.9292,2.070102659084406,44.33903211739408
3620.762,2.083159780494027,33.66376146968245
3621.595,2.1014235378358777,39.66251091023461
3622.4302,2.1170197639610335,39.08978977747581
3623.2634,2.1251132137039153,38.65412071738871
3624.0989,2.1247430118579134,41.76124228747795
3624.9326,2.117667700130958,39.60201884756842
3625.7686,2.1074034065228227,28.730169775164526
3626.6028,2.098494174647784,31.124713701560246
3627.437,2.094571120633573,51.277263261118726
3628.2734,2.0959197880068205,25.134888572355564
3629.1082,2.098716811399012,24.84412378370868
3629.945,2.0980400152758,40.583022048578705
3630.78,2.0924628761884665,42.66347990353252
3631.6174,2.085759179927391,26.386342719709656
3632.453,2.084114692683844,47.156997776051554
3633.2883,2.091241950604667,31.91594444924107
3634.1262,2.105768817209131,41.87454920854022
3634.9622,2.121944248077908,47.71612703663689
3635.8005,2.1334671575031705,26.0270871034001
3636.637,2.1370052842342857,41.95526546783171
3637.4756,2.1339993077106842,44.320594053149186
3638.3123,2.1291476837705083,25.839164572810194
3639.1492,2.127281142148906,34.218094024209805
3639.9885,2.13069249880876,27.916948253611714
3640.826,2.1381171037074194,46.86662220328621
3641.6653,2.145992654114995,36.610238996283705
3642.5032,2.150970264289474,29.126861112314
3643.343,2.1520570860230377,29.23393925720802
3644.1812,2.1503465793528087,44.32696079258955
3645.0195,2.1472384247894394,29.93694296508781
3645.86,2.143280462109444,26.58463856826705
3646.699,2.138792324139537,30.24878548787545
3647.5398,2.1347167552908637,45.26519582927016
3648.379,2.1323741279604262,32.447714075349815
3649.2202,2.1324122738662186,31.486187945810183
3650.0596,2.1348077411469606,32.5580115859874
3650.8994,2.1398511958555098,32.8369418973876
3651.7412,2.148550382119806,38.74027024664348
3652.5813,2.161433746137284,23.259347824370963
3653.4236,2.1772687997834783,31.401425736907708
3654.2642,2.1927848857920855,23.468651152748315
3655.1067,2.2045445991283468,50.044015543434725
3655.9475,2.2106818129942623,54.6918986406058
3656.7886,2.21187355342992,35.964856400144406
3657.6318,2.2102016693490683,30.330239541028064
3658.4734,2.2071524314232294,32.49460023006367
3659.317,2.202181995426157,31.97191609854728
3660.1587,2.1933900380808553,32.12688307106997
3661.003,2.179653331225439,25.8820721873701
3661.845,2.162656807260266,37.597690664452614
3662.6875,2.146256212668739,50.5162807070357
3663.532,2.134236241005485,33.7399669773042
3664.3748,2.127974280337072,57.62428264019299
3665.2197,2.125813814379205,38.29497911879883
3666.063,2.1248929247346906,29.525979988122135
3666.9084,2.1235599394044558,41.79604582082966
3667.752,2.122755846595793,30.95952199520261
3668.5977,2.125158462550265,47.859201572338684
3669.4417,2.1327919650920424,34.9924432291096
3670.286,2.1450411370059315,26.40181119203887
3671.132,2.158694190480446,49.33719469815571
3671.9768,2.1698464390481296,23.111564061556884
3672.8235,2.1763333942008467,41.0427089411515
3673.6685,2.1781106134499373,35.228234986713886
3674.5156,2.176002743327889,45.005393003137094
3675.3608,2.170234875824013,25.862552784297108
3676.2063,2.160628012168235,47.61261936056949
3677.0542,2.1479603797131195,36.220573749865906
3677.9,2.1346285205113578,46.81692551386381
3678.748,2.123129490678643,52.497898077869436
3679.5945,2.114662585925314,40.92018951535722
3680.4429,2.1086913270682466,35.20222245943241
3681.2896,2.104216327687542,32.91394004994992
3682.1365,2.100421125602355,41.69526795003875
3682.9856,2.096252790852145,37.74735980324016
3683.8328,2.0899425745045446,27.495511932190283
3684.6824,2.0798893208402562,43.23669564965668
3685.53,2.066780397301605,55.11634699701586
3686.38,2.054191491431964,48.16871620840483
3687.2278,2.047261947471784,36.37303644352321
3688.0762,2.0498176544452797,48.65063413281322
3688.9265,2.0626782431327255,38.24087273579499
3689.7751,2.0830223794618132,40.44976058462834
3690.626,2.1052723859790383,26.872996938910173
3691.475,2.1225255401563627,40.08804631700512
3692.3264,2.129693491989071,33.20606226537738
3693.1758,2.1258851109912817,32.56136456467142
3694.0254,2.115022620726828,28.449805733532774
3694.8772,2.103266659241507,39.58794584798332
3695.7273,2.095493944871342,38.15236998436618
3696.5793,2.0931052676647153,24.313812616944976
3697.43,2.0950566335733853,32.20657958194824
3698.2825,2.0999218330324076,40.62858701209443
3699.1333,2.1065413273814872,31.615964578911072
3699.9841,2.112996026143981,35.695968473470295
3700.8374,2.1159711064881117,28.08783535169708
3701.6887,2.112171312209114,34.76293364888324
3702.5425,2.1006418124765593,40.012359301199254
3703.3943,2.083754495196517,29.768303119819063
3704.2483,2.065691108864663,40.613234978390054
3705.1003,2.0503156267291907,43.940622276706144
3705.9526,2.0390712068532713,39.85173132007641
3706.8074,2.031088471772094,29.741593368737306
3707.66,2.0247523983151954,34.41741016940397
3708.515,2.0193031844731917,33.208566414596525
3709.3682,2.01541888500729,41.01008235277743
3710.2234,2.0141335631917756,33.66888257517618
3711.0771,2.0157429327810092,39.73172979329085
3711.9307,2.0195618508450632,25.065651823363243
3712.7866,2.024627742712503,31.776526406942686
3713.6409,2.030283297699613,37.79448686535154
3714.4973,2.036169525761589,53.783413011793556
3715.3518,2.041299144501888,31.472691674104947
3716.2085,2.043383947769375,46.85018506236251
3717.0635,2.0391027620898856,41.24301409842734
3717.9185,2.025943396193343,42.72720447581505
3718.776,2.0041979208944487,47.20797506715229
3719.6313,1.9778449919640448,57.48187963737608
3720.489,1.9526137350098487,44.823235435593766
3721.345,1.9339231085385868,34.714798161408076
3722.2031,1.9247500718415789,38.864716406073505
3723.0593,1.9254658972167595,48.069168526180725
3723.9158,1.9336324288540656,36.25095812553974
3724.7747,1.9443980505966914,66.39827738896327
3725.6316,1.951918696406141,31.20781010676603
3726.4905,1.9526989550107925,45.27667612434964
3727.348,1.9478937444254003,56.761428346478695
3728.2073,1.9421852049299129,36.91285806536744
3729.065,1.9395368444398715,66.45452498518482
3729.9229,1.939519061786613,40.875080012924606
3730.783,1.9376331205585693,51.513611779831656
3731.6414,1.928941594315474,91.22942197461741
3732.5017,1.9117606118768657,38.71307697096477
3733.3604,1.888943937010917,38.013324085179974
3734.2214,1.8659383623697532,41.10410119872808
3735.0803,1.8485876446153866,49.023438769516524
3735.9417,1.8409611914951722,43.22791366774006
3736.8013,1.8448901842036853,44.956792653403895
3737.661,1.8591765080102294,47.567326676650495
3738.5227,1.8795231155989789,44.019037013251285
3739.3828,1.8995391405680475,47.507277228690874
3740.245,1.9138090661748677,46.41481767503011
3741.1055,1.9197306491615753,48.97360543523583
3741.9683,1.917311140356416,69.99808270248536
3742.829,1.9068877303740466,39.994583384687026
3743.69,1.888189808309199,37.609174709611956
3744.5532,1.861893346341175,45.95152816662778
3745.4148,1.8320978589889183,92.0033629764066
3746.2786,1.8055428972552579,51.62140240546942
3747.1404,1.7888140068553053,53.33316254814277
3748.0044,1.7844670405166083,48.78778556558408
3748.8667,1.7905043382176622,42.23047105258332
3749.729,1.80216740277091,64.47054322212644
3750.5938,1.8148223721303112,41.53246014772429
3751.4565,1.8256273752488978,47.329897228768594
3752.3215,1.8340550211816937,44.088888668212896
3753.1848,1.8407981169546317,55.690504588930395
3754.0503,1.8466212616532771,42.715066183030416
3754.9138,1.8513661305044113,33.33630512172614
3755.7776,1.8541485015329735,44.967104468748616
3756.6438,1.8541806681930717,40.7060026165568
3757.508,1.8517744117343882,39.51420516146304
3758.3745,1.8485707386392556,38.60660993244922
3759.239,1.8466514160644723,52.521677895908155
3760.106,1.8469667131356629,35.84800270059199
3760.971,1.848527525797772,100.5005205376851
3761.8362,1.8491961854830246,55.52264851211144
3762.7036,1.8475516601413502,37.74598676868965
3763.5693,1.8441439070453127,39.58400353232392
3764.437,1.8409131544758177,52.22592843494997
3765.3032,1.8396556667758204,58.71968065160543
3766.1714,1.8411252797407331,42.603000484796404
3767.0378,1.845373810039882,59.17015931197371
3767.9043,1.8522271253083389,51.463010585264406
3768.7732,1.8611724723198644,42.340305771735075
3769.6401,1.8709148282861718,58.27773134566529
3770.5095,1.8794762267287244,50.158050168677455
3771.377,1.8843228123669469,43.95620227166569
3772.2466,1.8834316395596018,44.912371953574386
3773.1145,1.8769160024977374,48.6222383222682
3773.9824,1.8683621675867326,49.070651897298326
3774.8528,1.863717741396739,58.9555898276577
3775.721,1.867593153015072,53.640239377525646
3776.5918,1.879829603015276,44.90479832452026
3777.4604,1.8958275538593532,41.338932526355606
3778.3315,1.9106300351902101,40.1533172825568
3779.201,1.9219414344718728,34.588296195502245
3780.0703,1.9301503639397815,51.90177567358496
3780.942,1.9356529831866978,38.968737490521605
3781.8118,1.9372347383121096,38.86341068630294
3782.6838,1.9330058654152056,37.27696320576244
3783.554,1.922406201303644,37.431759044797666
3784.4265,1.9069770143786053,40.6520448134773
3785.297,1.8894705632525974,40.71781643303248
3786.168,1.871835510864799,49.18867476206328
3787.041,1.8547344671492463,49.05958350244
3787.912,1.8386561371430417,63.48857996015294
3788.7856,1.8247006435474635,37.030340789698144
3789.6572,1.8143578354610854,86.49090373598179
3790.531,1.8074784181644268,70.68868075916512
3791.403,1.8016811756737579,33.8194308120254
3792.2754,1.7938272480516428,42.17470872063813
3793.15,1.7827253119612823,43.94936257431283
3794.0225,1.7701819124782705,71.65631811981088
3794.8972,1.7590067904833262,40.61426104060908
3795.7703,1.7507148161544592,49.22936178105525
3796.6455,1.7449651485690134,56.74110835202283
3797.519,1.7417134856708087,46.85741981505068
3798.3926,1.7428865635452218,51.87240127586779
3799.2686,1.7517205274580259,52.36757653832721
3800.1426,1.7698489559725377,57.8851879038157
3801.0188,1.7951377979796266,41.843869710861114
3801.8933,1.8214603908795317,42.24475395736879
3802.77,1.8417563680751359,48.63430729512906
3803.6448,1.8513373867452394,35.33183255464392
3804.522,1.8506789234772734,62.23963452273208
3805.3972,1.844661424013286,44.9961395531505
3806.2727,1.8391592494062308,41.67792176627563
3807.1504,1.837057687443737,50.4123339199101
3808.0261,1.8365778968202564,62.03116200135408
3808.9043,1.8328351204877802,40.648555718504674
3809.7805,1.8213263104372264,46.330070035091516
3810.659,1.800595214066654,45.52703859575187
3811.5356,1.7730678334201848,45.24448635333014
3812.4126,1.7434641311473282,48.04634670734033
3813.2917,1.7169641904464166,106.19761231662598
3814.169,1.697923101846913,51.644001053424525
3815.0483,1.6886765859020303,60.34713533124105
3815.926,1.6892806356786576,50.92846609186152
3816.806,1.6967952422448833,57.83892063107819
3817.684,1.7057357238378807,35.30201099834198
3818.5623,1.7104693178259696,47.47057540458088
3819.4429,1.7082502239076982,54.56147114243659
3820.3215,1.7004939197839442,56.64827798975645
3821.2024,1.6907692576584115,63.29539623400518
3822.0815,1.6816635535561137,50.97915363996385
3822.963,1.673112382129121,67.87212698160658
3823.8423,1.6635415004283995,46.03520200219755
3824.722,1.6514564087733004,57.795344657985865
3825.604,1.6363041468884572,58.95498055587944
3826.4841,1.6186442272835666,67.77525324785671
3827.3665,1.5998879504989951,84.14386958392879
3828.2468,1.5824598393961653,57.96283854292262
3829.1296,1.5685086219483462,65.91851001473866
3830.0105,1.5588412220619865,73.5667572826626
3830.8916,1.5522319527613877,60.38104133677962
3831.7751,1.5467562671637434,77.65620401545685
3832.6565,1.5414965426341187,65.10354344052304
3833.5403,1.5368710740637783,76.38556048073355
3834.4224,1.533562357522484,74.55063112714468
3835.3064,1.5311442089305505,91.7584050676756
3836.1887,1.528290039605843,64.03098121776733
3837.0713,1.524252705403755,45.82050793465135
3837.956,1.5203472317853368,66.92772219458203
3838.839,1.5201300955460781,95.35715826283169
3839.7244,1.5279661060377647,58.216120517826525
3840.6077,1.546738335267103,61.03206914657263
3841.4932,1.57609790691521,81.98291340226461
3842.377,1.6116596745430487,57.30343425772151
3843.261,1.6468276896404805,46.90781195969832
3844.1472,1.675270710216066,77.22967422671718
3845.0315,1.6933305563206469,46.07370901201237
3845.9182,1.7015589325094334,48.56799648027434
3846.803,1.7033479746421942,48.71065215668808
3847.69,1.7027905503751415,71.61550006281821
3848.5752,1.7028846905163124,40.38169619882646
3849.4604,1.7054210617579906,48.989981750752115
3850.3481,1.7113131829725974,52.268330865057855
3851.234,1.7198559921971128,80.69353566948047
3852.122,1.7278404121945625,54.45815416830542
3853.0083,1.7300538897867361,49.98506885223533
3853.8967,1.7221164031828677,51.6928937008311
3854.7832,1.7034488160846062,58.49797280788977
3855.6702,1.6780337648569559,57.919121615947205
3856.559,1.6525254009846013,88.1797761719146
3857.4463,1.6331851952481211,61.942231856691635
3858.336,1.623287041645317,54.07297873298108
3859.2234,1.6233205311530503,54.123763124906134
3860.1135,1.6319527668558838,63.31370662527697
3861.0015,1.6468020640315753,61.957568098616214
3861.8896,1.6646045856673783,63.18349981732226
3862.7803,1.6815557929653546,51.14709989139498
3863.6687,1.6944904404578052,45.159405627213474
3864.5598,1.7025851648121115,56.8840015631954
3865.4487,1.7072018279353194,51.33587543470341
3866.34,1.71060152345695,50.33406757967405
3867.2297,1.7138388068039343,57.63731488815235
3868.1213,1.7157057993306228,43.48636643371906
3869.0112,1.713085575987868,46.21109662270112
3869.9014,1.7027020589268282,60.98751483422861
3870.7937,1.683157090567759,52.125851050696525
3871.684,1.6564392405619766,54.51932082273079
3872.577,1.6272299625121949,69.36698590250185
3873.4678,1.6015116961483595,85.53668083912738
3874.361,1.5835056119619682,57.59979888326922
3875.2524,1.5740628770147014,57.407159909129106
3876.1438,1.5699793934736406,51.32317995794898
3877.0376,1.5662287827466408,46.86734263073585
3877.9297,1.5592390529625444,65.49626570786383
3878.8237,1.548693451125504,75.24979910720332
3879.716,1.536520446771183,104.58669442530785
3880.6108,1.5240842342450487,93.47302378834894
3881.5037,1.5109384556476473,68.51861269299678
3882.3965,1.495159285247501,78.40590947994495
3883.2917,1.474722694474413,88.08838499757896
3884.185,1.4488332870737182,50.7709048998465
3885.0808,1.4184628364899436,65.48726888865554
3885.9746,1.3873306959927878,63.404482754494644
3886.8706,1.3606872685851445,98.4123699454263
3887.765,1.3439431594761513,84.76821353164179
3888.6592,1.3401455998531393,121.64909818806748
3889.556,1.3490904993314703,114.96799780029572
3890.4507,1.36729353889751,67.8184754152954
3891.348,1.389525944716285,71.94536828229202
3892.243,1.4105843367147408,82.66635658064045
3893.1406,1.4276721646117279,64.97431943606058
3894.0361,1.4409716463796178,78.53907883358735
3894.932,1.4535103747645202,80.56250237781467
3895.83,1.4691560482610146,120.93661303962415
3896.7263,1.490042021650631,95.94014529021754
3897.625,1.5151829029887882,86.7627789960278
3898.5215,1.5404812663255105,136.91824443295513
3899.4207,1.5616348565476599,70.80258995131366
3900.3176,1.5763490365514137,53.60761561492969
3901.2148,1.5856456315554694,61.03936395189664
3902.1145,1.5922309428665016,43.12759631218964
3903.0122,1.5985026826754358,50.3263165908909
3903.912,1.605965565235161,60.867128125644534
3904.8103,1.6156223453566585,64.46974939279522
3905.7107,1.6281186864125987,50.78736718565805
3906.6094,1.6424548356276256,47.32113983390609
3907.508,1.65564261233463,52.473263992124245
3908.409,1.6643631224489084,68.20229453411724
3909.308,1.6678158593981414,58.71429362643286
3910.2097,1.6688818978805022,94.74017176794202
3911.1091,1.6717923911097894,63.742625829615406
3912.011,1.6786991212570794,60.15910809794292
3912.9111,1.6881957796444842,53.93371674954678
3913.8113,1.697074439801156,92.78531392029927
3914.7136,1.7029541249275146,60.4662972541495
3915.6143,1.7054673135040133,47.08576024320169
3916.517,1.70575496695456,54.26126144109605
3917.4182,1.7052636748599848,76.44157140438642
3918.3215,1.7050547402619542,54.638936331923084
3919.223,1.7055727379601735,62.58632747011582
3920.1245,1.7066614206922632,53.84386261525673
3921.0286,1.7077822154954971,60.36123768682659
3921.9307,1.7082360133846375,54.520652896238545
3922.835,1.7071311075732698,57.41415561156251
3923.7373,1.7031716911330215,50.84356273775603
3924.642,1.6947985798577943,41.73902504944557
3925.5452,1.6810202132782333,63.26480513243599
3926.448,1.6620542016186264,58.507051616139535
3927.3535,1.6394489003356671,74.11895824091268
3928.257,1.6159073911983137,58.508251201726885
3929.1628,1.5941128486508893,74.23285520009972
3930.0667,1.576208909246018,59.354917569612034
3930.9731,1.5626555198568393,71.6111318422416
3931.8774,1.552624414585132,61.23512948993634
3932.782,1.5448444604175369,66.65174273466847
3933.6887,1.5391339907305182,53.75165913870789
3934.5938,1.5367214994344685,66.32041922557798
3935.501,1.5390603592270753,58.32509929165854
3936.4062,1.5464159847980798,60.87767340100081
