wavl,flux,ivar
3566.9744,4.340322365854485,0.9872761011287674
3567.795,4.32770426711644,0.30905433589763737
3568.6177,4.31005600632467,0.351168648934599
3569.4385,4.289776375018127,0.23044811421296957
3570.2617,4.270174164355162,0.27671593964615
3571.083,4.2553635123604865,0.4786080270924692
3571.9065,4.248527154207461,1.9659616299976772
3572.7283,4.250386075010797,0.9718966255144501
3573.55,4.258217590514027,0.4084841769106633
3574.374,4.267376877339367,0.2868920506951832
3575.1963,4.274207296611045,0.4414725611628723
3576.0208,4.278493376410982,0.6810077043999555
3576.8435,4.2831167939544335,1.0067201031402127
3577.6682,4.292354937728481,1.6774423195095434
3578.4915,4.311491145565829,0.3532803042870206
3579.3145,4.350136771697314,0.390625069231209
3580.14,4.426222369061933,0.9709918941878498
3580.9636,4.561017878423918,0.2040600074318282
3581.7893,4.762040187065188,0.186817011486009
3582.6133,4.995937981491103,0.40809756391783025
3583.4395,5.18784460512928,0.15631084714531363
3584.264,5.253985330551295,0.3562372570758785
3585.0884,5.16110867455035,0.3756896069641193
3585.915,4.948819002105307,0.795172161086268
3586.74,4.7019053755842775,0.44132774152590903
3587.5671,4.49075761893451,0.3232024249192321
3588.3923,4.343165454844519,0.36980518436941984
3589.22,4.248012301393506,0.6443942505776246
3590.0457,4.183974234649767,0.29338462055711007
3590.8716,4.135678346249357,0.538934068246095
3591.6995,4.098232559072877,0.48942789740197945
3592.526,4.072418872609625,0.6171037900337873
3593.3542,4.059037874974823,1.4747948339443764
3594.181,4.0571072146643115,0.8624909526977015
3595.0098,4.063770247045361,0.2615653542233214
3595.8367,4.075274313419443,0.3875472662594195
3596.6638,4.087965675829856,0.2899183039758643
3597.4934,4.099040565899731,0.5921596363877162
3598.3208,4.106793663725156,0.8460674892227582
3599.1506,4.110249939041445,0.3624672003719484
3599.9788,4.107804607456717,0.22668155524977704
3600.8088,4.09705308501367,0.37041012759458736
3601.6372,4.077056841797761,0.4661270373491905
3602.4678,4.051643507534487,0.29251884093419855
3603.2964,4.030767327325226,1.090647386344571
3604.1252,4.026035354224876,0.3314673661205889
3604.9565,4.044076957546318,0.42473078327460523
3605.786,4.081825661303248,2.383446418636238
3606.6172,4.12879165379826,4.085694532878249
3607.447,4.173009265756275,0.17304242202557976
3608.2788,4.207523589155104,2.354141686188102
3609.109,4.230787821869047,1.5213203677672702
3609.9392,4.244130628615664,26.23256280832598
3610.7717,4.248111535978682,0.34647881042271605
3611.6023,4.242053957409106,0.14344189974254007
3612.435,4.225750439119121,0.20246934515465598
3613.266,4.201042556262221,0.30362137169257775
3614.0994,4.171273686005862,0.3593799855623315
3614.9307,4.140180432610519,1.3804610423089607
3615.7625,4.109990693998113,0.5102946847713288
3616.5962,4.081595266840105,0.30181013526799416
3617.4282,4.05587222477444,0.44296869778436637
3618.2625,4.034417826319418,0.3942154313265722
3619.0947,4.019632891492082,1.6391430514908776
3619.9292,4.012669845936865,0.674207932193624
3620.762,4.012590511516886,0.48345191279969146
3621.595,4.016751163149645,0.2091850586811438
3622.4302,4.022271516151123,0.2970906874429071
3623.2634,4.02675055752453,0.3492911602340608
3624.0989,4.0284654491630665,0.5430597690552117
3624.9326,4.026528134009853,0.7051937052284263
3625.7686,4.021257006270026,1.677601295101074
3626.6028,4.013861386004262,0.5282869370204217
3627.437,4.005337740171296,0.6881877114990995
3628.2734,3.995869020458976,0.23103771868436274
3629.1082,3.985213257229496,0.5007111196103803
3629.945,3.972947484405171,0.8059413384100044
3630.78,3.958655245933667,0.3417340648383072
3631.6174,3.941824452339182,0.6545125252077245
3632.453,3.9228371477869164,11.901093258999602
3633.2883,3.9031317651599147,1.0945636565818329
3634.1262,3.884783210334056,0.44182662749204454
3634.9622,3.869462168540806,0.35641951238623476
3635.8005,3.8571207134131775,0.3888488341734991
3636.637,3.846361354130321,0.3670847319055804
3637.4756,3.8355318394120776,0.479534609088764
3638.3123,3.8247579388043618,1.6576729906340222
3639.1492,3.8162099588914997,0.38668330691769637
3639.9885,3.812607416499838,0.45143470140023845
3640.826,3.8149660617777252,0.44792215153855985
3641.6653,3.8216549163870095,0.49905448535642416
3642.5032,3.8291993132989623,0.2933009231914069
3643.343,3.833694613932306,0.434338168755318
3644.1812,3.831601160236606,0.4831305954725696
3645.0195,3.8203950130883246,0.3947264814476429
3645.86,3.7992950924914037,0.642272485883737
3646.699,3.770574724184652,0.22832031777744544
3647.5398,3.739496786837954,0.4367113714409038
3648.379,3.713088048605649,0.6414721198391773
3649.2202,3.6962456241044124,0.3802330257293318
3650.0596,3.6893212435350025,0.3909650119002114
3650.8994,3.6881064618075303,0.49537814653830625
3651.7412,3.687381767896942,1.5210396847355658
3652.5813,3.6843360995607575,0.8803687401193545
3653.4236,3.6794175715327904,0.5499392876505392
3654.2642,3.6747616953086215,0.25170706351881467
3655.1067,3.6721556830357325,0.7935114597825924
3655.9475,3.67232017090945,0.2185841084769895
3656.7886,3.675145404486989,1.1992742491037012
3657.6318,3.6803737458277466,0.9511810755973813
3658.4734,3.688115531150574,0.3896984864344565
3659.317,3.6990357061138903,0.6321219633384291
3660.1587,3.713355197619723,0.4311376752646836
3661.003,3.729710759105827,0.8849754768622945
3661.845,3.7445706327499777,1.1451666803203946
3662.6875,3.7540999918592037,0.5201835392664677
3663.532,3.7561916799426784,0.7080597155549964
3664.3748,3.7514523643248285,1.9468775432022842
3665.2197,3.7422714988796724,0.6008584828048684
3666.063,3.731302081712712,0.5473803056753211
3666.9084,3.7203666868427465,1.8186831595179132
3667.752,3.710629176589055,0.4648046251014217
3668.5977,3.7029234781690765,0.6631473948555552
3669.4417,3.698463723522077,0.32003294757138845
3670.286,3.6987406780435657,0.4509004511973338
3671.132,3.704884876149081,0.5045119040282071
3671.9768,3.7163128335394244,1.4505618998076861
3672.8235,3.729881520917491,0.31131612120792884
3673.6685,3.7401946714392316,0.3182945816632649
3674.5156,3.742023740001255,0.7784935681985105
3675.3608,3.733064192170167,0.5928565314251726
3676.2063,3.71540682331763,0.545227778270717
3677.0542,3.694134558931944,0.9394984840247136
3677.9,3.674528463435703,0.32887143357512655
3678.748,3.6592185313073826,0.6408521279768182
3679.5945,3.6483141954562464,0.5312732095731283
3680.4429,3.6405469294276407,0.6604747288688093
3681.2896,3.6349920150456096,0.3834608483756424
3682.1365,3.6314789490000594,1.0247934364903055
3682.9856,3.6306122493669553,0.5240502719026906
3683.8328,3.6336912606265637,0.3428862108384261
3684.6824,3.642247482823083,0.8820920512605546
3685.53,3.6565684737758057,0.5279881882486835
3686.38,3.6746658947318074,0.3814063216875974
3687.2278,3.6926934624066,0.48332613815386716
3688.0762,3.7073904554077313,0.4130501890234107
3688.9265,3.717308421105685,0.18347740730641082
3689.7751,3.722488685139941,0.404204775976002
3690.626,3.7236302755434365,0.35247840900633076
3691.475,3.7214549104712384,0.4321989482830443
3692.3264,3.716551401703011,0.35326470861481446
3693.1758,3.709404612941026,0.7224912613127067
3694.0254,3.7006370470952574,0.7712649515669081
3694.8772,3.6915164425815084,0.8144634962712467
3695.7273,3.684221986335,1.0843341695726894
3696.5793,3.6811963262060092,0.31029514713349926
3697.43,3.683795112607917,1.2397498747987958
3698.2825,3.6903587747396944,0.38326054246174857
3699.1333,3.6957115919505275,0.5058178264679876
3699.9841,3.69375461396378,1.6529131895595908
3700.8374,3.681472845883349,0.5651712415380781
3701.6887,3.661135393366281,0.3838453396822974
3702.5425,3.638138386671445,0.5540363672455813
3703.3943,3.6177001058301115,0.27610007210280696
3704.2483,3.602357523544127,0.540062750032871
3705.1003,3.5924943981793245,0.66333484871633
3705.9526,3.5868030397580704,0.4432546429632599
3706.8074,3.582844784198264,0.4136660096886757
3707.66,3.577785257081087,0.3379664967922166
3708.515,3.569848953778309,0.466992778885171
3709.3682,3.5597385346826282,0.5229188852067715
3710.2234,3.550213650778865,0.5277680439691821
3711.0771,3.544412490684619,0.9554815396299561
3711.9307,3.5437214900614693,0.34824283679978973
3712.7866,3.5470584891798245,0.357276332280142
3713.6409,3.551442717729616,0.971067026141046
3714.4973,3.5534350917386393,0.4129110445819858
3715.3518,3.5503616763022814,0.8216596908060344
3716.2085,3.541008816960564,0.6355076119687286
3717.0635,3.5258814902197386,0.6650469888601607
3717.9185,3.5070668603198962,0.3249045512284365
3718.776,3.4880025449847287,1.0214328548690883
3719.6313,3.4728139808032643,0.32946703082327305
3720.489,3.464357719027738,0.9660063714216705
3721.345,3.462977936030251,0.43369307866285534
3722.2031,3.466447311916014,0.539993507453433
3723.0593,3.471931880874475,0.4491604370579072
3723.9158,3.477944207594466,0.6252325880159606
3724.7747,3.484417481733971,1.4574875303541686
3725.6316,3.491329361596303,0.6862358038121938
3726.4905,3.497994327966382,0.5424738492412937
3727.348,3.5033102645263727,4.020925500060134
3728.2073,3.5063089947408153,0.5133434525214615
3729.065,3.505830110773421,0.6186898946184407
3729.9229,3.50041249171134,0.3100840443911254
3730.783,3.4890948275974303,0.3901747673491484
3731.6414,3.472814523674909,0.7064543547376818
3732.5017,3.4543059705316863,0.4043388292471177
3733.3604,3.436851180907201,1.1460752656545306
3734.2214,3.4222972140151993,0.46031457940785786
3735.0803,3.4110443046451957,0.285484412893258
3735.9417,3.4027527664174126,0.6158646046365931
3736.8013,3.3975425750717023,0.7890531507527064
3737.661,3.395758396540346,0.9126348132231834
3738.5227,3.397388212921385,0.6030258492820155
3739.3828,3.4018024110544807,0.6956389534719892
3740.245,3.4082878067830924,0.4586820038235445
3741.1055,3.416287475156512,0.42039910413341847
3741.9683,3.424883736678638,0.4669834443374165
3742.829,3.431748477576239,0.2621156030103263
3743.69,3.4336664662694982,0.6102935401906407
3744.5532,3.4283703066126923,0.3848982693727178
3745.4148,3.4164938957402633,0.27811265290876386
3746.2786,3.4014157979772146,0.5588894977296321
3747.1404,3.387520703756539,0.4701135116416225
3748.0044,3.377877922529432,0.8189956612533924
3748.8667,3.373655373357191,0.5547884476223551
3749.729,3.3743579826489687,1.3567718988245656
3750.5938,3.3788192609909258,0.37459766454445564
3751.4565,3.3859293212106625,0.9022134261358541
3752.3215,3.3953064635552628,1.1581106396417469
3753.1848,3.407354791543654,0.7116006315928971
3754.0503,3.422925745354178,0.7340839782642554
3754.9138,3.441810663935544,1.3571282250230547
3755.7776,3.461696971897755,0.5583378149617424
3756.6438,3.4780852545735383,0.38723139386968386
3757.508,3.4861034465128364,0.3722676221405718
3758.3745,3.4834327553454045,0.281869820154594
3759.239,3.471464287135094,0.5468986929653616
3760.106,3.4541797044954867,0.36639055853103836
3760.971,3.4359830132236526,0.46379663978516905
3761.8362,3.4196313213865657,0.5810040946743253
3762.7036,3.405943084565533,0.8290530866122675
3763.5693,3.394255500121318,0.8925165173235672
3764.437,3.3827547320500444,1.2142696744468062
3765.3032,3.3693007171332443,0.45797419563157504
3766.1714,3.352011604084136,0.7306156076552119
3767.0378,3.330272397267597,0.6613276601295496
3767.9043,3.304867423082938,0.7063938043176906
3768.7732,3.2777818528035074,0.6396289266125421
3769.6401,3.2518463161669873,2.2285954792972307
3770.5095,3.2297942356631886,0.5841855137447752
3771.377,3.214585762063182,1.0487046073784014
3772.2466,3.208672078686021,0.48097912730531245
3773.1145,3.2135622514660853,0.4940011368627098
3773.9824,3.22922211220853,0.6043577589812337
3774.8528,3.254660721583689,0.4195610911760452
3775.721,3.2883183899023165,2.0684410366223824
3776.5918,3.3285676327101306,0.6985611402422622
3777.4604,3.3721708602592337,0.77696958093365
3778.3315,3.414595637580848,0.4006555621161755
3779.201,3.4497773245489443,0.4448132737270034
3780.0703,3.472599112311212,0.6124650632951154
3780.942,3.4806268622776857,0.3647707118481669
3781.8118,3.475459259664964,0.4996305531910338
3782.6838,3.4622473322065717,0.4082369679179153
3783.554,3.4472630030916154,1.5953114761117282
3784.4265,3.43464018132912,0.7603605536720472
3785.297,3.4248477508346324,0.373760055406066
3786.168,3.4149928961901908,0.5804822663950289
3787.041,3.4012557634480727,0.5239658029983726
3787.912,3.381517783682009,0.4398844021863581
3788.7856,3.356172995813193,0.4689470645669709
3789.6572,3.327582572396128,0.525142468771083
3790.531,3.2975662564577646,0.7968280441229489
3791.403,3.2664714085060282,0.43371428022583675
3792.2754,3.2328799398638672,0.41846201044462344
3793.15,3.195218851727841,0.7106762160206166
3794.0225,3.153509403572823,1.1814761855208271
3794.8972,3.1092741527968095,0.47028129307222233
3795.7703,3.0659847351730782,0.6478276924262533
3796.6455,3.0277649392372994,0.7244775170827235
3797.519,2.9996638445911503,1.0573940319195443
3798.3926,2.986266966097243,0.757795332839049
3799.2686,2.9906813563852572,0.872088154605583
3800.1426,3.0129359944149052,0.5933063139947923
3801.0188,3.049694194474647,0.740391269042757
3801.8933,3.0946676295004436,0.6547755022397677
3802.77,3.1406600827859625,0.5087784059001592
3803.6448,3.180748009812608,0.4685363472035731
3804.522,3.211476662231847,0.3242590718703134
3805.3972,3.2338952704922868,0.6886349778655261
3806.2727,3.253445778197984,0.660434454800581
3807.1504,3.276308423757989,0.5236020459361113
3808.0261,3.305515401862505,0.577663912694627
3808.9043,3.3399496296801914,0.40257312849694116
3809.7805,3.3752722181253025,0.43391721272288913
3810.659,3.4073741132693747,0.7523702083253051
3811.5356,3.4338923557099625,1.2786541722644427
3812.4126,3.455128725192539,0.7491077349801398
3813.2917,3.472553647884168,0.5553962935743445
3814.169,3.4869083692626877,0.7549322864406989
3815.0483,3.497447675910919,0.7949155451821437
3815.926,3.50223944718193,0.42118550207631045
3816.806,3.4999284161704214,0.3785152078365535
3817.684,3.490830373588287,0.7104778151468971
3818.5623,3.476733198226492,0.6675818263353124
3819.4429,3.4597161005250046,0.6239986972233903
3820.3215,3.4413677295838747,0.34394138902244353
3821.2024,3.4220577850546494,0.566986210139457
3822.0815,3.401123709333005,0.6675980064389913
3822.963,3.376640002032606,0.32160066402927323
3823.8423,3.3466136841312064,0.4520054086435778
3824.722,3.30988073802066,0.5102458213889721
3825.604,3.2669572488847853,0.7046170199950994
3826.4841,3.2198393903109888,0.6817896094614774
3827.3665,3.1697707666796813,0.47272411568588885
3828.2468,3.1170601270396245,0.7135523790797498
3829.1296,3.0602570548122903,0.5286863696359673
3830.0105,2.9981661045560277,0.6110649346270949
3830.8916,2.9298105949473854,0.54612974235224
3831.7751,2.8553698573686,0.5629686374636803
3832.6565,2.7774542808332163,0.8585178817202483
3833.5403,2.700743952580607,1.0442951629297152
3834.4224,2.6342049344889986,0.6978432333207044
3835.3064,2.588475852613255,0.44090744551735744
3836.1887,2.5729660024493826,1.9305578212115897
3837.0713,2.5903085692617074,1.0047333646871677
3837.956,2.635105572492546,0.80989219286079
3838.839,2.696478553640702,0.9504697117294625
3839.7244,2.764765242790498,0.8222891854904197
3840.6077,2.834540962598309,2.34495538577122
3841.4932,2.905372726547469,0.6439431824686892
3842.377,2.9771478532947624,0.8516200281737833
3843.261,3.048274543411755,0.7107904862813489
3844.1472,3.1148181496162684,0.6679043833207573
3845.0315,3.171896981859902,0.4303625391809732
3845.9182,3.217252559641525,1.3252328608805974
3846.803,3.251870549535903,0.5091265168411137
3847.69,3.2806635602055563,0.6611131170018844
3848.5752,3.3093502908735273,0.4797176585145065
3849.4604,3.341594386716533,0.5037991634864295
3850.3481,3.3768656485751105,0.34803117099114167
3851.234,3.410985708832104,0.4621430797823391
3852.122,3.4397358470928285,0.46760262640815475
3853.0083,3.461013962842996,0.5596643051683634
3853.8967,3.476028990177386,0.6630054740466017
3854.7832,3.4873945813435103,0.5239998331227054
3855.6702,3.497330174891599,0.4035435389122879
3856.559,3.5064873793716633,0.52088081905035
3857.4463,3.514459764690594,0.5263913628520186
3858.336,3.521121188211546,0.3203048710348962
3859.2234,3.52706439108804,0.2821950330314861
3860.1135,3.533255339238219,0.4537989614916753
3861.0015,3.5400001149874516,0.5633286849496423
3861.8896,3.546580026893158,0.9002707114572291
3862.7803,3.5513249532906017,0.968825061758217
3863.6687,3.5521661942835916,0.605858416988365
3864.5598,3.547582892326595,0.5100278454649539
3865.4487,3.5374934126763806,0.3895886064865286
3866.34,3.5233456983016693,0.6269236599550321
3867.2297,3.507311534343679,0.7063567066811596
3868.1213,3.490523428434595,0.4250344341800197
3869.0112,3.472570008231666,0.36563708343888485
3869.9014,3.451809168092323,0.2925545773232399
3870.7937,3.42657193796638,0.5511983289572048
3871.684,3.396130585758399,0.379952318308833
3872.577,3.3604360893237706,0.5659589250614143
3873.4678,3.320501877176645,0.9408816044837759
3874.361,3.277180393358778,2.012721957719794
3875.2524,3.2313363796949384,0.45835151643674776
3876.1438,3.1829930620790874,0.7771490188136627
3877.0376,3.132034289749909,0.3541583497129447
3877.9297,3.0790882803875474,0.7454313257112262
3878.8237,3.0245350359487615,0.6312658654589196
3879.716,2.9686788802255886,1.1455038518128056
3880.6108,2.910245515757033,0.8312662144356917
3881.5037,2.8475710514752994,0.7860850895248139
3882.3965,2.778453138602157,1.2539050497119357
3883.2917,2.7012963896895466,0.7592160227681787
3884.185,2.6161223351346097,1.3209850310595916
3885.0808,2.5230108577777184,1.0287027942858753
3885.9746,2.4238223714635607,3.19582743621695
3886.8706,2.3215477047478843,1.746673467172577
3887.765,2.224002110402901,1.7491636129407258
3888.6592,2.1428870540350458,1.2507961666927194
3889.556,2.0918015000938595,2.4722193022269163
3890.4507,2.081011498946072,1.5881152853419458
3891.348,2.112132608715045,1.8754622996655972
3892.243,2.177911697975853,1.5788461394145736
3893.1406,2.2664577224613276,0.9582669707295899
3894.0361,2.3644658652117174,0.9833438477597182
3894.932,2.4616735520626674,0.9438724988513992
3895.83,2.551471585872973,0.6210646567504242
3896.7263,2.630823368776442,0.7060060534706493
3897.625,2.7014818396544236,0.5483221227004921
3898.5215,2.7668843777767074,0.7750483991148408
3899.4207,2.831319654886946,1.1739165175239654
3900.3176,2.8966178158064966,1.3015204477811027
3901.2148,2.962936790588832,0.4792708225869301
3902.1145,3.0290617829740607,0.6107570795366741
3903.0122,3.0931459003501307,0.6952383697731864
3903.912,3.154556052813155,0.5348481161221321
3904.8103,3.212746091429862,0.6721723970484991
3905.7107,3.2680182438322913,0.4963028336308243
3906.6094,3.320243863760215,0.3563316877856449
3907.508,3.3696983259445488,1.1305607604099217
3908.409,3.4168418972254138,0.5597087721274293
3909.308,3.461960292121569,0.5059972765327905
3910.2097,3.5056064283740036,0.36796573982042724
3911.1091,3.5474196694192006,0.4144762871115659
3912.011,3.586798214046591,0.3341471767055886
3912.9111,3.6220742170894047,0.4523649856856963
3913.8113,3.651529532655696,0.6181953785759324
3914.7136,3.6738568981054263,0.37201526885293984
3915.6143,3.6888402095918296,0.686986715037229
3916.517,3.6979015160061954,0.40895428878055573
3917.4182,3.7031919610736184,0.3859976829826742
3918.3215,3.7066066131058246,0.33522104276620446
3919.223,3.708828203181385,0.4027479187200655
3920.1245,3.709618253556909,0.4409892496129842
3921.0286,3.7090368390149746,0.4464988974619506
3921.9307,3.708678430986886,0.47117168586044444
3922.835,3.711495473997314,0.40119770470388244
3923.7373,3.7199840036630327,0.3795352857516164
3924.642,3.734278989123871,0.40086381563119633
3925.5452,3.7515709498586025,0.3382138806265588
3926.448,3.7677504499885464,0.5013419723429735
3927.3535,3.779372897118504,0.3124892972475082
3928.257,3.7848601725141258,0.3294727972563643
3929.1628,3.7849490016895446,0.45338710215524647
3930.0667,3.7818339629707647,0.7770268383327708
3930.9731,3.777578016444631,0.6383333748172633
3931.8774,3.772428196992257,0.46803786286191434
