wavl,flux,ivar
3566.9744,6.478586456567367,32.11430542176164
3567.795,6.479283365117549,31.34961520961731
3568.6177,6.478435054768776,32.24235650734431
3569.4385,6.481929687995589,30.481794769563937
3570.2617,6.494144701690656,34.75384083570367
3571.083,6.51620458272581,32.12420900982093
3571.9065,6.545505983002026,30.16621536664791
3572.7283,6.5751328761361885,33.10806646411879
3573.55,6.595808260092833,33.5876359473133
3574.374,6.599574579424659,30.836215181489113
3575.1963,6.584367590141431,34.042367601445584
3576.0208,6.555602728170121,32.95035929159413
3576.8435,6.5233247587863445,33.39942498276805
3577.6682,6.496125826631769,31.586571503892326
3578.4915,6.477461026766899,33.44327489560548
3579.3145,6.4650149828728125,33.800130528924036
3580.14,6.4541798226388165,32.41421097443706
3580.9636,6.4428098333172725,34.017896608913844
3581.7893,6.434189709144783,36.020307406559425
3582.6133,6.435905024319231,38.56528173942151
3583.4395,6.453885399839209,32.60193628042358
3584.264,6.486194071192435,35.01977500176569
3585.0884,6.522270018824251,33.33519718914234
3585.915,6.5481745985787425,31.417538704576643
3586.74,6.5537886105106296,33.322861695339874
3587.5671,6.537288241236938,33.750280076790645
3588.3923,6.5037634876099055,31.736997092543227
3589.22,6.460389530532795,33.2293445464218
3590.0457,6.413285158915049,31.226808770557486
3590.8716,6.3659388799897245,39.48050284387831
3591.6995,6.321078420030226,32.49052779267704
3592.526,6.2825418664085015,35.015500116669735
3593.3542,6.254382333731761,36.349956023798434
3594.181,6.23928410183012,35.19496709472062
3595.0098,6.236000318340726,34.20832981010219
3595.8367,6.239511352771084,34.78716840373182
3596.6638,6.242845430523392,35.72371478950652
3597.4934,6.239758227523619,37.05968200539614
3598.3208,6.226937723719553,35.061226059983206
3599.1506,6.205070491082346,36.96587148580963
3599.9788,6.179337204486867,35.482367199136014
3600.8088,6.158375256994533,37.762189911233605
3601.6372,6.152689448862021,36.356477741098445
3602.4678,6.170787796229546,36.09638443903538
3603.2964,6.2147081618189945,39.231710049882984
3604.1252,6.277515652679887,37.64845523887396
3604.9565,6.344910494439591,33.193280936841425
3605.786,6.400156273201389,37.808631855004926
3606.6172,6.431673740277935,35.02305707023491
3607.447,6.435863069480326,31.267278731008805
3608.2788,6.4177465066602215,35.77886420235681
3609.109,6.387815397690135,35.75816557006886
3609.9392,6.356717170381749,37.12902545944397
3610.7717,6.3302921662758465,34.25859706411669
3611.6023,6.307921323253449,35.05838278274098
3612.435,6.284860285629253,33.1975711771793
3613.266,6.25783841892922,37.4358669987506
3614.0994,6.227750360475368,36.436637170887536
3614.9307,6.1991849396567575,37.45949870211176
3615.7625,6.17629016161052,37.142133063821866
3616.5962,6.1600524889076365,36.62163094008277
3617.4282,6.148032022007395,39.46805776387982
3618.2625,6.136477096513059,32.905942232386735
3619.0947,6.123449115998564,37.0056952757228
3619.9292,6.109526782571264,36.376123172616104
3620.762,6.096509386816858,41.42826685239605
3621.595,6.085136166626364,36.88007615566014
3622.4302,6.074941680322962,37.044463422535074
3623.2634,6.065544343865844,36.1476534919554
3624.0989,6.057025912886834,36.031726924547364
3624.9326,6.049554221392502,37.99998636577601
3625.7686,6.043282490780198,35.57105409260347
3626.6028,6.039452689286786,42.02007763091858
3627.437,6.039971662219844,42.54624048130738
3628.2734,6.04511550477894,37.25661046134447
3629.1082,6.051675961223314,35.20222548146281
3629.945,6.054429657440965,39.74426541512477
3630.78,6.0496851700198455,36.560970748626595
3631.6174,6.038136977048123,37.31876756143383
3632.453,6.025132705912668,45.84022477508546
3633.2883,6.017631339685174,38.55258748816108
3634.1262,6.019465705845568,41.68632145380469
3634.9622,6.0277911014589804,37.39845428224347
3635.8005,6.034997052359062,34.467912191366935
3636.637,6.0352701657021,40.322244652195636
3637.4756,6.029825076708044,37.516907275503996
3638.3123,6.02543140518904,38.675823363853624
3639.1492,6.0283809599519875,41.01439285543251
3639.9885,6.04014188431247,42.88128889355073
3640.826,6.05720009942038,39.418671422183806
3641.6653,6.074071234333747,38.521970134637456
3642.5032,6.08558027741728,42.20118423131012
3643.343,6.088141046185537,41.673635362796524
3644.1812,6.080124560838624,39.246641262887344
3645.0195,6.063036619822872,42.34911384586301
3645.86,6.0421196151335685,39.234065861401575
3646.699,6.024654854755061,40.37274834538569
3647.5398,6.015405497640855,37.61762253894472
3648.379,6.013959733713851,44.87212734804752
3649.2202,6.015933479348019,41.22565549614207
3650.0596,6.017281695163403,38.93379690821095
3650.8994,6.017142160200434,38.76070895149379
3651.7412,6.016596805731047,43.46539716256581
3652.5813,6.015218617719715,44.37029147259293
3653.4236,6.009646915243538,39.622859259861265
3654.2642,5.996308504579902,41.53909791381419
3655.1067,5.975346398955984,49.73636407767544
3655.9475,5.952048414321997,43.566993346536385
3656.7886,5.933658417106363,46.06280036396739
3657.6318,5.925238055660081,42.021165971698366
3658.4734,5.927352400573294,38.931719852600196
3659.317,5.936660346836534,40.859989169608276
3660.1587,5.9480341708318845,43.50154056265147
3661.003,5.956613834055743,40.41936815740629
3661.845,5.959141315457336,44.006727058313594
3662.6875,5.9550700501775395,44.014426148511866
3663.532,5.946200549908063,40.92326127607576
3664.3748,5.935440379695962,42.53878942603639
3665.2197,5.9252228337410795,42.85742677770726
3666.063,5.916975319790017,45.512858699189074
3666.9084,5.910964870659026,42.58518189990183
3667.752,5.906787416651501,39.73263747336152
3668.5977,5.9034689959136655,39.63566910400377
3669.4417,5.899705548023988,41.37273112537895
3670.286,5.894433895475616,44.9243464895935
3671.132,5.88779984917565,42.27652804567894
3671.9768,5.881204426087522,42.970131982196754
3672.8235,5.875760249490208,43.1664387324227
3673.6685,5.871031032120035,42.85578301543736
3674.5156,5.86546705730267,43.963595940572056
3675.3608,5.858720824405251,44.408595920044995
3676.2063,5.85339300034335,43.151232185396914
3677.0542,5.854444192090289,41.39323676286099
3677.9,5.865505362449041,44.226180180152305
3678.748,5.884508378177071,43.758142788614265
3679.5945,5.9022815411672775,43.81796592905611
3680.4429,5.907081113998472,40.38158139009686
3681.2896,5.891561704083881,42.49061497481865
3682.1365,5.857373015409907,43.54693102408397
3682.9856,5.813572290877628,44.12771784621266
3683.8328,5.771902235017071,44.61290132527191
3684.6824,5.741546863462756,41.23680786082776
3685.53,5.728060461941859,47.13025898693143
3686.38,5.731961778558895,40.748209794382774
3687.2278,5.747830533217365,41.248058331575955
3688.0762,5.764910317667131,43.6232261083226
3688.9265,5.772086335447393,42.82936411009428
3689.7751,5.765140365105751,44.57505065814198
3690.626,5.749818207529448,42.66078984315599
3691.475,5.736860001697098,46.29143724935283
3692.3264,5.732840114316427,45.58317634142353
3693.1758,5.7358789787513995,45.57877175025087
3694.0254,5.739253788971899,43.0362490213456
3694.8772,5.738320028115048,43.196648956973746
3695.7273,5.7330273992334,45.70906226637219
3696.5793,5.724499121729205,47.19702341290039
3697.43,5.711262489126648,45.802184888787345
3698.2825,5.690099043286506,44.204619606188956
3699.1333,5.661017271199785,43.765475353776374
3699.9841,5.629809685249071,43.38065983950655
3700.8374,5.605810765330809,46.04822972951394
3701.6887,5.596671123400881,47.44697177906541
3702.5425,5.603876793092883,44.97868018848311
3703.3943,5.622733224854077,44.14592049962103
3704.2483,5.645506472324568,48.78999365814112
3705.1003,5.664815305905354,46.08839727573483
3705.9526,5.675970785077346,48.31162489072636
3706.8074,5.676732526563111,47.18693422244259
3707.66,5.6668289554250375,41.64066398033257
3708.515,5.647914339987569,46.95914852200888
3709.3682,5.623942840863567,47.927194553372736
3710.2234,5.600180802739782,51.09788008211493
3711.0771,5.581882534070909,58.05037572108768
3711.9307,5.572133169250797,50.71155381497058
3712.7866,5.570754209830166,48.59608732028986
3713.6409,5.573777548537237,46.14247552524875
3714.4973,5.574344395112665,48.1056703733515
3715.3518,5.5659173689091,46.355986486817045
3716.2085,5.546529456751327,50.51094322309694
3717.0635,5.520729599050331,47.96934555666121
3717.9185,5.496096824173856,47.62345237735923
3718.776,5.477631815655979,47.813643178309185
3719.6313,5.4649930401709055,48.35584898466223
3720.489,5.454127623609316,47.370506013637524
3721.345,5.4415809404448865,48.535640825070395
3722.2031,5.426713207415197,52.41076669203272
3723.0593,5.411967192432314,46.47692102843971
3723.9158,5.401352349477777,51.51072826627619
3724.7747,5.398974141842713,52.24894824375591
3725.6316,5.407322192480495,53.13304825333222
3726.4905,5.425903128175668,53.81976227016253
3727.348,5.450650572771814,60.14768734635543
3728.2073,5.475042038214523,48.13412690616674
3729.065,5.491835037763297,53.75031608228144
3729.9229,5.495917241374046,47.97804295291678
3730.783,5.485793757439448,54.19548297068689
3731.6414,5.463926984388897,52.64250944968755
3732.5017,5.435025384161988,47.7317803904365
3733.3604,5.4040010615121785,52.046341208938024
3734.2214,5.373600425247266,53.67873984738429
3735.0803,5.344699597710213,55.444965042148695
3735.9417,5.3172314481004195,57.52683979319674
3736.8013,5.292990155441885,53.951404331333165
3737.661,5.2760971968357175,52.50059976168568
3738.5227,5.2717828987039566,53.9288186242119
3739.3828,5.283005091367033,55.539742213319045
3740.245,5.307417676828048,58.17295316950523
3741.1055,5.337058905526289,53.28291401840206
3741.9683,5.362284881968985,56.75815506687521
3742.829,5.376175950540183,51.78624855245955
3743.69,5.377541442414373,54.107443086389274
3744.5532,5.369073504998151,50.931035676540326
3745.4148,5.354046513235193,53.41565924181991
3746.2786,5.334370868408762,53.53964180906098
3747.1404,5.312077871057255,54.50704810356326
3748.0044,5.290904290649012,56.01596352602493
3748.8667,5.2762878894536085,55.16419573621867
3749.729,5.27218938360224,53.72435279664272
3750.5938,5.278878374325137,50.23868690232179
3751.4565,5.29309663384819,52.680886990922794
3752.3215,5.310595369513965,49.79464331366726
3753.1848,5.327838680475872,59.30199778058463
3754.0503,5.342330811284346,55.678815808884245
3754.9138,5.351487520428614,59.55450645436407
3755.7776,5.353026380021567,55.42421300645628
3756.6438,5.346305281419289,49.69222523320082
3757.508,5.333654202231873,51.84863950382148
3758.3745,5.319128365386857,55.41281944087704
3759.239,5.305486404174086,54.763563910324415
3760.106,5.291349564287969,56.37636548424565
3760.971,5.272339384070434,56.55926473343578
3761.8362,5.245002632816274,57.7572744449651
3762.7036,5.210976672405835,59.07014165760465
3763.5693,5.177698663277254,61.106328199240416
3764.437,5.153899931741828,58.36461119436716
3765.3032,5.144657463414207,55.39699424005236
3766.1714,5.148333887883494,55.74024612800965
3767.0378,5.15857579504381,54.805297470937845
3767.9043,5.16869248102861,60.43032400770844
3768.7732,5.174813136129891,58.984850901352154
3769.6401,5.1761920935171135,57.77058484456458
3770.5095,5.17421949267192,56.757515436446255
3771.377,5.1713953566552675,56.91297294929732
3772.2466,5.170297886871851,54.46965390528875
3773.1145,5.172206016171726,57.31612314133468
3773.9824,5.176196047533348,59.01868786064659
3774.8528,5.179682417442628,58.80100881821858
3775.721,5.179661360610601,62.74051731359416
3776.5918,5.173724835160257,56.79429647776106
3777.4604,5.160646083237396,55.224950591663514
3778.3315,5.140660908128426,54.59979867319145
3779.201,5.115781553989225,56.90204076139102
3780.0703,5.08896046465267,63.494492129537775
3780.942,5.063454145277234,66.62216569794383
3781.8118,5.042576344302703,60.223725484902175
3782.6838,5.028932917949686,62.12414731869354
3783.554,5.024204758658734,54.830096789112694
3784.4265,5.028392088498323,61.1004715370631
3785.297,5.039695846023334,58.03398046526788
3786.168,5.054573517053296,54.598019952832686
3787.041,5.068027568452226,61.7856955530724
3787.912,5.074547567794477,59.74413086762107
3788.7856,5.070341984717312,60.26765483584471
3789.6572,5.055351114709955,61.90583764596713
3790.531,5.033817500745117,71.2895833080525
3791.403,5.013030430725351,61.52734929778992
3792.2754,4.9999884000997294,61.388086932982056
3793.15,4.998280471519719,60.52886514713972
3794.0225,5.006054395977639,60.9389080036573
3794.8972,5.016733762619052,60.526520648555035
3795.7703,5.022056258868007,60.099876071610346
3796.6455,5.015690512556706,59.80249613517949
3797.519,4.9953189692427955,59.411772053998206
3798.3926,4.963336536844368,63.32354894787014
3799.2686,4.926684695773837,63.21944688354072
3800.1426,4.89564757396241,62.99793900015578
3801.0188,4.8789753507447235,65.93235923471985
3801.8933,4.879089815574198,62.829259028197605
3802.77,4.889737921357471,63.673339169928596
3803.6448,4.89981960680375,66.49341698016681
3804.522,4.9005690940383975,60.51772088157203
3805.3972,4.890269365984669,68.68173210529501
3806.2727,4.873620288164261,62.1040935904216
3807.1504,4.857195331571508,71.17239307609827
3808.0261,4.8456098685419535,66.01750760201669
3808.9043,4.840219752037532,62.76014341421494
3809.7805,4.8404373720869325,66.66248069088822
3810.659,4.844957647819736,68.64754931092259
3811.5356,4.8525649904400705,65.87217629056047
3812.4126,4.862457036186808,68.74639597508947
3813.2917,4.873933822728906,68.65765609545845
3814.169,4.8855952650639685,62.725571501014265
3815.0483,4.895152737703255,65.89949342175466
3815.926,4.8996978580745045,63.57122176852246
3816.806,4.897002889524902,59.219755670161824
3817.684,4.886722224539216,65.84713858773468
3818.5623,4.87093190083548,64.68811654117005
3819.4429,4.853255487712671,62.92404989014425
3820.3215,4.837262255188151,67.3867118951455
3821.2024,4.8248130442717665,66.70912281604102
3822.0815,4.816305646731824,61.54542078939598
3822.963,4.8110738425167465,68.44732321303027
3823.8423,4.807816539694454,66.10722766534215
3824.722,4.8045473210250735,68.52586991872242
3825.604,4.79905803346848,66.59519421043316
3826.4841,4.789540732955567,72.13425697102154
3827.3665,4.7747128185497125,66.58096714504309
3828.2468,4.75424823086925,69.17313903880456
3829.1296,4.729179874502613,69.77102852626622
3830.0105,4.702784291406031,67.68981299596224
3830.8916,4.6795003478955435,71.18518244620705
3831.7751,4.663634632560688,65.59998006637673
3832.6565,4.658139852165226,71.21746081120826
3833.5403,4.663563223788483,72.83468237044563
3834.4224,4.67739496898176,69.60031410257191
3835.3064,4.693851059298084,71.35377608193606
3836.1887,4.705271203957979,72.14924178544113
3837.0713,4.705818798376293,69.48250776579967
3837.956,4.694602431476772,69.30389941843887
3838.839,4.676551135327119,67.59014749104897
3839.7244,4.659704958994687,72.45220300594862
3840.6077,4.650927768043922,70.90765250606732
3841.4932,4.651432979311044,72.3970880326769
3842.377,4.655874733411418,71.87976905076923
3843.261,4.6559439257568345,67.79796767226226
3844.1472,4.646366001594984,71.72761881003905
3845.0315,4.628472906709168,64.81296415007432
3845.9182,4.608203175022903,74.22216147695976
3846.803,4.591563014870653,75.70527491696639
3847.69,4.580922652644208,66.24788636054116
3848.5752,4.575577232502375,71.57081531364543
3849.4604,4.573969299682884,72.21059444270882
3850.3481,4.575466472685917,72.63468471706194
3851.234,4.579942292176778,70.7948181777016
3852.122,4.586541988556619,71.51116147574294
3853.0083,4.5932717540768895,68.50060702298123
3853.8967,4.598188647166971,72.98665712471501
3854.7832,4.600612335899298,78.40895170098602
3855.6702,4.601479531965227,73.35528936306766
3856.559,4.602376271473423,72.65489108158079
3857.4463,4.604202025066962,74.65139823920234
3858.336,4.6063342679027794,79.12779682872284
3859.2234,4.606987042121752,72.22052302269041
3860.1135,4.604898658060979,73.79214488810976
3861.0015,4.601015521479388,77.3181436142165
3861.8896,4.598515248409494,81.26976246357503
3862.7803,4.601076482144575,76.00063391731035
3863.6687,4.610635212539652,75.83611564816597
3864.5598,4.625953316124628,81.2320558455297
3865.4487,4.641831646467282,74.53571449684803
3866.34,4.650272157120068,75.8213970683914
3867.2297,4.643475473558424,78.69007402725467
3868.1213,4.6185031082409385,77.35027538533663
3869.0112,4.579906166750437,74.53458525314377
3869.9014,4.5375511593426765,76.43015099507791
3870.7937,4.501724527971144,79.89514521941238
3871.684,4.478464383523513,86.40785439488867
3872.577,4.46658859295219,78.85058980306836
3873.4678,4.4591655872912686,79.12696978938821
3874.361,4.447272686057041,78.54384151470293
3875.2524,4.425317278910882,75.23297871250116
3876.1438,4.3940198615459165,82.66132879532971
3877.0376,4.3599659755885245,78.0090366002199
3877.9297,4.332517456224381,79.58559834376653
3878.8237,4.318804287881907,76.60745711225876
3879.716,4.320785039714315,80.39489243619106
3880.6108,4.334532859020432,81.08876188673119
3881.5037,4.352721455972508,81.88263181223644
3882.3965,4.368451803219534,82.76843840568127
3883.2917,4.377349287401373,86.58000396537696
3884.185,4.377369781321136,84.73166763887104
3885.0808,4.367858701676264,84.37956436697614
3885.9746,4.349244764218667,79.10730221221483
3886.8706,4.323326077876219,79.95246284301783
3887.765,4.293776783522836,85.10183528211134
3888.6592,4.265087088770046,79.81356722996232
3889.556,4.241252853558272,92.6893927085085
3890.4507,4.224367157251103,90.25561770536036
3891.348,4.213455365659921,81.66056470394855
3892.243,4.20579341173618,84.78657650257554
3893.1406,4.198967215797884,79.01914843886073
3894.0361,4.192790252506689,79.7928230698246
3894.932,4.188832523199438,88.16956752630753
3895.83,4.188750825846511,90.58710418078718
3896.7263,4.193001391096031,90.40166925535642
3897.625,4.20115864547828,87.27041656103228
3898.5215,4.212907170349491,78.86553019348872
3899.4207,4.228524556845186,89.24930826685996
3900.3176,4.247753867109277,86.87515095829555
3901.2148,4.269216935854647,83.39046150991034
3902.1145,4.290702361641104,88.7090729198784
3903.0122,4.310296354290539,83.96929692973357
3903.912,4.327416006396729,88.12023488014997
3904.8103,4.341674876288196,85.70612377198646
3905.7107,4.351812723317515,81.15367464977702
3906.6094,4.355176361774797,87.99264741671675
3907.508,4.349472122937696,81.9712315550564
3908.409,4.335005160105176,78.90215261774848
3909.308,4.31598585810357,88.03397869761044
3910.2097,4.298924063518485,83.67317966995309
3911.1091,4.289742966482274,91.59135221602898
3912.011,4.290630154517895,80.97759562954673
3912.9111,4.299379994685776,80.15029359828996
3913.8113,4.310769596921245,83.28792977713627
3914.7136,4.319176498623083,85.13907772468283
3915.6143,4.320847234090928,73.70106056145383
3916.517,4.3151473100562825,82.82979155704922
3917.4182,4.304108245133531,85.0341401338493
3918.3215,4.290817201981674,82.91296238384065
3919.223,4.2781091676489655,82.5791146239522
3920.1245,4.267840037464294,82.04418681543237
3921.0286,4.261214327153985,86.3797671164314
3921.9307,4.259005707504685,80.65077513530794
3922.835,4.261424769574702,84.36083684029028
3923.7373,4.2681556561301415,86.74994550857598
3924.642,4.278410169924888,80.16275291570327
3925.5452,4.290566720707236,77.71078305084868
3926.448,4.302157853861992,50.57607550702447
3927.3535,4.310515146357693,83.98576823947712
3928.257,4.314111016855664,82.07827878401906
3929.1628,4.313643115738062,84.04249060895775
3930.0667,4.311348204183674,79.0859852552255
3930.9731,4.309042886348762,87.67104773739433
3931.8774,4.306201238250269,86.23604901337666
3932.782,4.299757609880478,85.92719618779373
3933.6887,4.286416118539239,84.72098068387886
3934.5938,4.2659367191589705,91.4590415856023
3935.501,4.241904508819268,84.5767926207259
3936.4062,4.219638629503525,78.16333648914566
3937.3142,4.202096930000711,89.97197329912873
3938.22,4.188688605895653,89.87522276294939
3939.128,4.176664271453002,86.08420693487435
3940.0342,4.164521055451665,78.73850866200934
3940.9407,4.153174533405558,89.81118496614772
3941.8494,4.144698971080022,91.3205155814189
