wavl,flux,ivar
3566.9744,1.1763137146623739,482.0984804638654
3567.795,1.172100760525554,446.773580488573
3568.6177,1.1676390788651871,535.3585304302716
3569.4385,1.163705579023633,531.6972857602476
3570.2617,1.1610381421849827,610.8571626163987
3571.083,1.1599363920909584,556.9914393081682
3571.9065,1.160123651585814,436.4453572214744
3572.7283,1.1610766332479971,600.5398412017892
3573.55,1.1622983250926466,700.5550799899116
3574.374,1.1634118599940326,491.76433899437734
3575.1963,1.1642874558933247,596.8561181548201
3576.0208,1.1653297033361039,520.2338571492139
3576.8435,1.1674348785342945,533.8175452537278
3577.6682,1.1713621197921198,607.967348729413
3578.4915,1.176805246512237,480.5619150126654
3579.3145,1.1822489369380333,438.69980359492075
3580.14,1.1858529867398375,489.4812664994232
3580.9636,1.1866966824883793,432.28145632498456
3581.7893,1.185368041396507,580.4640561753404
3582.6133,1.183299611905168,448.41820515838185
3583.4395,1.1815970831660645,658.2691642939079
3584.264,1.1803618653895194,533.9043945493
3585.0884,1.1788232150837015,596.0660539425957
3585.915,1.1760252711836978,616.3916993823433
3586.74,1.1714290775831526,555.5512576048919
3587.5671,1.1650501591865714,616.4217434704199
3588.3923,1.1575278741578974,526.3873854109552
3589.22,1.1499404090047176,534.9435654136746
3590.0457,1.1436855597269797,590.9695820450843
3590.8716,1.1397425538174601,516.8512886498376
3591.6995,1.1381852531188024,526.7227746342631
3592.526,1.1381709985721706,568.8724860313871
3593.3542,1.1385584575813006,529.3824976558203
3594.181,1.1386637895564322,539.8064619875794
3595.0098,1.1385494717949554,524.7682448875028
3595.8367,1.1387355473165037,552.886323848926
3596.6638,1.1396791240860085,568.0969043007899
3597.4934,1.1414804297887498,509.982369347634
3598.3208,1.1438995832668897,627.4246398207968
3599.1506,1.1465722965642418,593.3191007772645
3599.9788,1.1490792416851265,485.0280171604971
3600.8088,1.151056228789991,497.65672773933755
3601.6372,1.1521747856328148,554.5751041038052
3602.4678,1.1521362930815144,637.0166090421349
3603.2964,1.1506663334700407,644.3087483848395
3604.1252,1.147751457416635,624.9159606318544
3604.9565,1.1439854593823562,596.605430356894
3605.786,1.140695710597889,596.3046089067625
3606.6172,1.1393864551384296,643.1790041931056
3607.447,1.140929974005052,471.5406001490246
3608.2788,1.1449109334983238,486.3432037607668
3609.109,1.1496731932683375,495.46619565276075
3609.9392,1.1531509486384774,451.22707765152063
3610.7717,1.1538321484913878,684.9370498041396
3611.6023,1.1513859551763552,549.3737933420396
3612.435,1.1466153322079118,774.373853943519
3613.266,1.1409641188541595,631.2895801177931
3614.0994,1.1357916942658188,649.7191018547869
3614.9307,1.1319709133354552,523.8752424177235
3615.7625,1.129613878963259,599.3304857171662
3616.5962,1.1282833463386868,569.7266995437845
3617.4282,1.1273242625353548,583.9115632157093
3618.2625,1.126134259124835,565.9933131953287
3619.0947,1.1243371213410471,544.0405099810772
3619.9292,1.12182779806353,532.810741948987
3620.762,1.1188120401548978,589.2448589515852
3621.595,1.1156423770501145,516.7937228090798
3622.4302,1.1126122242053271,572.3698411862881
3623.2634,1.1097930751551193,652.324100466265
3624.0989,1.1069379674978512,612.6561160948022
3624.9326,1.1036550460305963,541.6718682116584
3625.7686,1.0995597489499682,568.5981626620239
3626.6028,1.0945467754833145,749.1659551291784
3627.437,1.088873748651476,463.6743386682457
3628.2734,1.0832198970804303,572.8362193244516
3629.1082,1.0785541187856003,610.1174303950928
3629.945,1.0755991196650225,647.9349072083044
3630.78,1.0744535538727387,540.9327613276632
3631.6174,1.0745041493905814,699.2480439204119
3632.453,1.0749293264448645,550.2395229723045
3633.2883,1.0752316712788352,597.1181023601066
3634.1262,1.0753817199681686,569.3788742982081
3634.9622,1.0756141773061312,576.2592995432132
3635.8005,1.07624553458506,606.4321498369557
3636.637,1.077570631343797,732.0902802936085
3637.4756,1.0796460492387068,635.289291426702
3638.3123,1.0819477067577155,760.8558409437659
3639.1492,1.0834493032281631,619.0935367025871
3639.9885,1.0831686894392611,534.2483088091259
3640.826,1.0807814680032228,632.7366967914156
3641.6653,1.0766922507272925,522.9783248982806
3642.5032,1.071716405591837,611.4940207163352
3643.343,1.066675825816586,602.9682455798925
3644.1812,1.0622888210180519,708.5857899688278
3645.0195,1.0589335784816998,812.1283004362729
3645.86,1.056583037541555,733.1757223185567
3646.699,1.0549571682391377,672.3049795434109
3647.5398,1.0538078841931682,660.4774765431861
3648.379,1.053043956515505,576.0269841635619
3649.2202,1.0524454147873983,604.9280647732386
3650.0596,1.051494540149023,576.3168782941088
3650.8994,1.0496554298666618,585.3159789788936
3651.7412,1.0468700226878853,718.3684971731969
3652.5813,1.0436670695052699,690.3312107369545
3653.4236,1.0406816669273027,617.3562082325361
3654.2642,1.0382811050589356,638.3021997402258
3655.1067,1.0365439815358823,561.5863034556484
3655.9475,1.0356286336789053,615.1320798741926
3656.7886,1.0359232698768268,594.448945080278
3657.6318,1.0379843016349097,690.9504193054613
3658.4734,1.0424301220123067,760.342117548521
3659.317,1.0500928535624368,681.4600210795763
3660.1587,1.0618398342407653,539.293318290013
3661.003,1.0778057658125937,662.9700187052086
3661.845,1.095650592684162,633.2843499031829
3662.6875,1.110426103384777,688.1272537062262
3663.532,1.1165532953414574,45.259492252825
3664.3748,1.1115661202528686,570.4948339395787
3665.2197,1.0980367702102871,670.5841368117416
3666.063,1.0817630272530514,647.5351835692675
3666.9084,1.0677962114505781,550.9905625652032
3667.752,1.0584232275164291,656.0402493969373
3668.5977,1.0532581478759189,629.3808443286101
3669.4417,1.0508982582963653,708.7472742994426
3670.286,1.0498578344099665,740.7004322803022
3671.132,1.0489948764729586,617.6880395874905
3671.9768,1.0476180890843487,711.2878678921298
3672.8235,1.0455124834887415,652.8079623460834
3673.6685,1.0428777451084332,737.7863090457912
3674.5156,1.0400998266451584,647.6133434850226
3675.3608,1.0375976094725359,613.1289167986145
3676.2063,1.0356053464305186,608.7833237314491
3677.0542,1.0340210336397955,616.6507203418691
3677.9,1.0323290287104465,760.8925749665374
3678.748,1.0297802421161912,604.9621219855494
3679.5945,1.025935279597059,656.7786794636754
3680.4429,1.0210040636572797,835.5112637795496
3681.2896,1.015818601504138,766.8966138915337
3682.1365,1.011313320889741,671.7509522288756
3682.9856,1.0081998000217702,699.7292562490042
3683.8328,1.0068710317817713,697.3319304517781
3684.6824,1.0073240529269003,1020.7781645224875
3685.53,1.009141553261378,730.1736062498344
3686.38,1.0116060780248324,670.4139745284282
3687.2278,1.0140211755057271,644.2518602534187
3688.0762,1.0160986240199907,777.3710199056284
3688.9265,1.0180013158090406,625.5408001277287
3689.7751,1.0201066990682446,644.4429951207612
3690.626,1.022720064356263,779.2708477803712
3691.475,1.0258215875742824,691.2064674874078
3692.3264,1.0290815756169123,702.7921561107762
3693.1758,1.0319283988619048,658.5887310879729
3694.0254,1.03378872963331,740.9711397880915
3694.8772,1.0342241430762227,629.6725417355539
3695.7273,1.0330958669227361,655.8317421199051
3696.5793,1.0307010831985692,719.7336267931082
3697.43,1.0277700644705148,733.1458267208725
3698.2825,1.0251430390733904,697.283594063479
3699.1333,1.023375902796858,733.604913299931
3699.9841,1.022447477538604,575.279188147524
3700.8374,1.021878545949284,649.325599988025
3701.6887,1.0210437986957683,724.1636211428556
3702.5425,1.0194767754563356,678.4383851194395
3703.3943,1.017103032532888,597.6606274441567
3704.2483,1.0142272131828425,685.9669455755588
3705.1003,1.011355534623448,640.9398892857926
3705.9526,1.008847840809784,793.6951438310699
3706.8074,1.0068224075454995,649.3169839658407
3707.66,1.0052416256067518,850.3709812708122
3708.515,1.0039153999549884,722.9304053490395
3709.3682,1.002515385068739,688.2523628762245
3710.2234,1.0007101197952333,636.8275404298614
3711.0771,0.9985606576522393,799.1335996845423
3711.9307,0.9966243493089074,737.1084813142103
3712.7866,0.9955199715225472,691.415499077966
3713.6409,0.995273904350009,723.1761562668805
3714.4973,0.9951499488916251,583.5914716707987
3715.3518,0.9943081434417892,819.9124158193448
3716.2085,0.9926917466799026,759.2504237711127
3717.0635,0.9913312836874206,927.4048106152684
3717.9185,0.9916887802699137,840.4822315887405
3718.776,0.9946474222482939,742.2347704178923
3719.6313,0.9998479785358234,773.5745097934532
3720.489,1.0059585985462474,655.5010892720355
3721.345,1.0114261376055378,967.9739165653657
3722.2031,1.0154553986805317,624.60780485214
3723.0593,1.018267033652923,658.6292535406352
3723.9158,1.0206799351260354,775.3021618696312
3724.7747,1.0230311763171795,657.5742932494903
3725.6316,1.0244873619126167,668.4042902458999
3726.4905,1.023614566566952,819.413369602711
3727.348,1.0197673800363452,751.1375826358227
3728.2073,1.0138888383134306,686.4981146705672
3729.065,1.0078427034345374,803.8153721477223
3729.9229,1.002841600640058,761.2515694762761
3730.783,0.9987795290047224,695.55389539964
3731.6414,0.9948652492009935,684.3783570384259
3732.5017,0.9906475544288342,739.5499833864036
3733.3604,0.9865792598728256,926.2027741300946
3734.2214,0.9835970909902401,767.0039037483133
3735.0803,0.9824988150177049,800.3821522889134
3735.9417,0.9834070553212062,804.7768933038072
3736.8013,0.9857190725094965,717.9740858122038
3737.661,0.9883672476638601,673.6392898302705
3738.5227,0.9902584550499869,757.8083127675827
3739.3828,0.9906826132628737,703.5501495550798
3740.245,0.9895650908405315,627.8073882280886
3741.1055,0.9874065442514968,702.2914972388718
3741.9683,0.9849662114389176,932.6667970257935
3742.829,0.9828975965883284,645.4991929376246
3743.69,0.9814248337585036,635.9978046785549
3744.5532,0.9803916341324276,658.1533757491954
3745.4148,0.9795540814504393,765.9633220674257
3746.2786,0.9788182936929265,734.3783738727733
3747.1404,0.9781947179243177,823.9686356479659
3748.0044,0.9773535074444871,734.9658168797175
3748.8667,0.9750193812672728,695.3757690189052
3749.729,0.9685657432291636,831.8452513558653
3750.5938,0.9546350972754145,707.3705447413383
3751.4565,0.931757438985049,709.9356904269312
3752.3215,0.9033059852444945,747.6488009857997
3753.1848,0.8786011271014537,654.9089073947794
3754.0503,0.8681274451062786,35.21287084910249
3754.9138,0.8768353319058908,827.9368463641483
3755.7776,0.9004058229286596,676.0847999821511
3756.6438,0.9287573253613508,697.7998578494455
3757.508,0.9523999167961834,842.9254749870375
3758.3745,0.9671759906531646,742.6782109931868
3759.239,0.9735453565214662,828.4845474532042
3760.106,0.9742711642500901,882.8903402941379
3760.971,0.9721625789834415,696.487468279879
3761.8362,0.9692854084435338,810.277633155007
3762.7036,0.9668153501842164,847.981439830374
3763.5693,0.9651476043778224,855.614627588408
3764.437,0.9640748394508729,784.8768780633243
3765.3032,0.9631884335054063,741.9445197110346
3766.1714,0.9622513109521142,786.1475111752395
3767.0378,0.9614009390575909,802.6825399155201
3767.9043,0.9609807832200031,920.1865777395335
3768.7732,0.9611727907801106,771.4167805448656
3769.6401,0.9617138246197687,644.8947849857952
3770.5095,0.9619880129677891,843.0337051822246
3771.377,0.9614361748321004,695.5606791046291
3772.2466,0.9599497694183973,668.0933084882964
3773.1145,0.957910918445165,1099.2905739330306
3773.9824,0.9558193515411257,745.2541971562425
3774.8528,0.9538936239925907,1002.2290387099526
3775.721,0.9520264428954477,769.5014554844149
3776.5918,0.9500806018797904,756.6840879052813
3777.4604,0.9483114413964163,877.9599893945956
3778.3315,0.9473320506787483,896.2415013607095
3779.201,0.9477030070435036,689.5891313089817
3780.0703,0.9493776900360635,739.6266132046235
3780.942,0.9515750580855825,759.3759280993256
3781.8118,0.9531700378476502,1002.4580344032821
3782.6838,0.9534513887249229,763.5654278910653
3783.554,0.9526181764414712,821.1162780105537
3784.4265,0.9516909903403337,732.67233979983
3785.297,0.9518170873815126,778.1815914814964
3786.168,0.9534388783287135,855.5066923042914
3787.041,0.9559951162637578,768.1019822981972
3787.912,0.958311358602556,755.0066942443176
3788.7856,0.9594268078577463,676.4199288909002
3789.6572,0.9590610603900158,703.4066275180941
3790.531,0.9575537194650148,772.3936256240577
3791.403,0.9554819649134927,899.3898345833155
3792.2754,0.9534002851923317,750.3503476583005
3793.15,0.9518080478492444,858.0995764879938
3794.0225,0.9510415240324708,806.4003902433714
3794.8972,0.9509630683463893,753.4868490330477
3795.7703,0.9508402591402172,699.5764254466936
3796.6455,0.9496687670065381,811.2512165159102
3797.519,0.9468344138455191,776.787427352024
3798.3926,0.9425505448679704,891.4157265628356
3799.2686,0.9377336777367016,923.9200332437072
3800.1426,0.9335022581165026,804.0316358110513
3801.0188,0.9305497012388709,841.3485918439429
3801.8933,0.9290339492074404,829.9460160022734
3802.77,0.9286888242351398,861.7362583070751
3803.6448,0.9291256662051868,718.4434306962639
3804.522,0.9300319276087117,1034.7031448410594
3805.3972,0.9312813551533726,833.0477174927295
3806.2727,0.9329863095449672,807.0311853373665
3807.1504,0.935422467592004,869.3992518032956
3808.0261,0.9388008061547573,869.6233536134647
3808.9043,0.9430971106761339,792.9187933845502
3809.7805,0.9479437205082304,814.3651516513963
3810.659,0.9528684530681033,804.9082663830163
3811.5356,0.9573561514845189,765.0084942509889
3812.4126,0.9608904204217347,821.8616366362252
3813.2917,0.9628310352878418,642.9902335233795
3814.169,0.9625963893431512,801.3179163880254
3815.0483,0.9601575831010047,749.6313592159684
3815.926,0.9563824184359785,840.3959890614883
3816.806,0.9527363973585534,907.4838314870381
3817.684,0.950526194726249,727.377781350658
3818.5623,0.9501208064771176,802.3167360938329
3819.4429,0.9509040677139873,744.6442896075275
3820.3215,0.9517746751467813,930.1928868983365
3821.2024,0.9518060208099554,733.7301317152237
3822.0815,0.9506197402698392,812.3419375564057
3822.963,0.9483701609353604,883.2170255653002
3823.8423,0.9454775738681936,885.3041669819045
3824.722,0.9422411711350617,838.194766591132
3825.604,0.9386881328915472,937.8829752977707
3826.4841,0.934757994364838,806.1808000236956
3827.3665,0.9305342269116523,858.5706913001693
3828.2468,0.9264302194385895,898.6118684199956
3829.1296,0.9229049285306707,873.9519962754536
3830.0105,0.9202102644029675,844.7703165087233
3830.8916,0.9181901415301993,761.8844725570511
3831.7751,0.9164636872847547,910.331699135623
3832.6565,0.9146838063539392,962.9398113964244
3833.5403,0.912648874915985,981.9069720386688
3834.4224,0.9103700707434319,875.1645768775079
3835.3064,0.9080568823717264,896.9947995465579
3836.1887,0.9061325494523762,799.6153785434008
3837.0713,0.9049943073929205,991.0244436050372
3837.956,0.9047129239795252,1005.6033137261572
3838.839,0.9049103792291388,1016.87614145688
3839.7244,0.9050546496474966,914.5780062439347
3840.6077,0.9049631652888253,920.4861378507906
3841.4932,0.9050548486857758,1104.1229902784953
3842.377,0.9061043720545088,1055.7279294969455
3843.261,0.9087192596819846,836.192802865358
3844.1472,0.9129737040287675,900.683789419347
3845.0315,0.9183271193213411,782.4364433219799
3845.9182,0.9239071191499685,989.9039553351594
3846.803,0.928741246995496,887.7689763899414
3847.69,0.9322276217662863,748.3166379402043
3848.5752,0.9343036241925562,855.8059020588719
3849.4604,0.9354546554976083,769.4920624361947
3850.3481,0.936350514924524,808.7867170753703
3851.234,0.9374591780073555,736.9392805511396
3852.122,0.9388239438768835,820.7515005243918
3853.0083,0.9400461586054295,761.8423142275219
3853.8967,0.9405666703539496,780.1826236168729
3854.7832,0.9400407106032254,843.3995451304513
3855.6702,0.9386137564841578,713.3494314174743
3856.559,0.9368453577409944,947.413318062885
3857.4463,0.9353680729360756,831.4716561528959
3858.336,0.9344692554826659,743.7278537538107
3859.2234,0.9339448752025927,877.330251381822
3860.1135,0.9332426861291496,765.1294009395131
3861.0015,0.9318475455645708,846.7009781168119
3861.8896,0.9295702556361939,816.7370876472878
3862.7803,0.9266054552175867,789.9120078980827
3863.6687,0.9234325299179383,734.0145562744283
3864.5598,0.9205734015764545,746.9614207719147
3865.4487,0.9184452699046881,940.7905239315411
3866.34,0.9170952700427085,841.4630469886387
3867.2297,0.9161844670414219,911.9952632400401
3868.1213,0.9151777456637303,727.4360615213121
3869.0112,0.9137465418698497,835.0362530681663
3869.9014,0.9119701302527969,982.6803694767112
3870.7937,0.9101772588325294,864.3457132476304
3871.684,0.9085940679862138,957.9168237934023
3872.577,0.9071442124517723,791.8947976150519
3873.4678,0.9056778159820391,808.7747666394899
3874.361,0.9042471320512624,709.9745308371462
3875.2524,0.9031748782021303,840.706034872401
3876.1438,0.9027509103194258,857.7655388522354
3877.0376,0.9029176980163224,926.4149306452235
3877.9297,0.9031582781723374,913.5810368213675
3878.8237,0.9027076016453911,1052.6766292637778
3879.716,0.9009594941564006,906.8774585743339
3880.6108,0.8977634750203655,1010.2482158006882
3881.5037,0.893440803379452,961.2514928026156
3882.3965,0.8884606273441024,848.9999350387627
3883.2917,0.8832294476220677,1067.0589968728943
3884.185,0.8781376720651659,1015.8576601673298
3885.0808,0.8735321533397326,929.5673180820656
3885.9746,0.8697517548711862,1127.6000390554286
3886.8706,0.8668935752012988,1038.1354682048268
3887.765,0.8648233961018114,1017.234455426916
3888.6592,0.8632448522119445,1048.7325054893413
3889.556,0.8619516964270335,1059.6578167606235
3890.4507,0.8610314753155273,1008.0072878599805
3891.348,0.8608617444355374,1120.78950223067
3892.243,0.861909799200893,942.6173503734126
3893.1406,0.864404841806209,890.5910485573597
3894.0361,0.8680873917327468,951.7714525653407
3894.932,0.8722998263057746,949.8565893499128
3895.83,0.8762941691227999,806.079989272647
3896.7263,0.8796125892474043,919.1734089703673
3897.625,0.8823671946252593,1011.7066495511485
3898.5215,0.8849847188605404,881.2036587224293
3899.4207,0.8878029865610758,1010.9272727345776
3900.3176,0.8907022339224804,871.9871946079269
3901.2148,0.8933156122130158,941.3657163049974
3902.1145,0.8954513408174725,917.4969724461583
3903.0122,0.8973371672450131,838.7526405281347
3903.912,0.899478741909739,943.4606920601367
3904.8103,0.9022386735065696,919.4667975286189
3905.7107,0.9056749846855304,859.0910969213143
3906.6094,0.9095710797746943,871.0432448437656
3907.508,0.9136576235984238,953.6026927193448
3908.409,0.9176837513851815,824.8924144524744
3909.308,0.9213835007952259,747.5852372244302
3910.2097,0.924538993301383,861.46461246416
3911.1091,0.9269678415754292,1083.142003467641
3912.011,0.9286365011995681,906.7731875788419
3912.9111,0.9295991213370871,768.9614525627087
3913.8113,0.9299662538845676,834.8910036168372
3914.7136,0.9298427187276447,755.7253033744755
3915.6143,0.9292806359930129,901.6715861771852
3916.517,0.9280890456228755,778.7827553676811
3917.4182,0.9255823707296559,899.4830654418939
3918.3215,0.9206498234103809,826.0230831978183
3919.223,0.9126712151270614,928.8454051306196
3920.1245,0.9026550527183821,829.8197212194592
3921.0286,0.8935538269294399,711.2706667498435
3921.9307,0.8888578418862751,1155.6886589542364
3922.835,0.8901125251271924,776.2387405042987
3923.7373,0.8958977957365865,980.4784435053209
3924.642,0.9030164692336049,826.5954982912178
3925.5452,0.9086138094175693,824.8870629678422
3926.448,0.9115831020967211,818.8081111493394
3927.3535,0.9123031711901016,872.6059572971214
3928.257,0.9117075936839462,865.0586514912349
3929.1628,0.9105385861060141,892.2631709730124
3930.0667,0.9091264370846182,783.8614030053985
3930.9731,0.9075603315309391,946.6102845689251
3931.8774,0.9059937872605506,870.5048272138779
3932.782,0.9047187767463527,897.1267231244564
3933.6887,0.9040575677077746,822.9634661745407
3934.5938,0.9041453038397532,998.5405077956395
3935.501,0.9048049829530058,794.3048971620893
3936.4062,0.9056459075665597,722.4787449703563
