wavl,flux,ivar
3566.9744,14.23089262663106,5.461865675775923
3567.795,14.207853782273041,5.842146994967836
3568.6177,14.195575047350983,5.30232517432098
3569.4385,14.189168730912337,5.4183775917876
3570.2617,14.186604869861357,5.8760131748581035
3571.083,14.18684622575177,6.2804538177090095
3571.9065,14.188214289613153,5.828354705145665
3572.7283,14.188920403685493,5.766693962894075
3573.55,14.188001329157563,6.56126297299561
3574.374,14.184793933367983,5.157616621862216
3575.1963,14.177891123373426,5.042331443470408
3576.0208,14.165433740435532,6.354810768902221
3576.8435,14.147341406112591,5.554440879527937
3577.6682,14.126957935696204,5.819282136092595
3578.4915,14.110830271222065,6.212228481405847
3579.3145,14.10511231038494,6.75827743708957
3580.14,14.111629445591912,6.686592759145375
3580.9636,14.125909140388426,6.039245624195553
3581.7893,14.139380703186538,5.525615273470303
3582.6133,14.143419905372195,5.496635368799105
3583.4395,14.132047749126796,5.530130935778574
3584.264,14.10143692160179,5.875517535871485
3585.0884,14.049035533078774,5.847795599616601
3585.915,13.97525482341048,5.991976315003923
3586.74,13.88743600436268,6.239538952176418
3587.5671,13.798828123939456,5.938416558486635
3588.3923,13.725499739977703,7.445127422251729
3589.22,13.678182068404267,6.682477262403692
3590.0457,13.65990147008351,7.170198790802081
3590.8716,13.665742403271448,7.408628761417123
3591.6995,13.686682181309937,5.924432044704599
3592.526,13.711871434165607,6.7762783298658436
3593.3542,13.730485538764249,6.314666536780102
3594.181,13.733338291909755,6.025206339988421
3595.0098,13.716142536847554,6.174602831262222
3595.8367,13.681905480910832,5.532650512023952
3596.6638,13.639786292669921,6.530285784433578
3597.4934,13.600707608613892,6.170440572311894
3598.3208,13.572545640100806,6.581483406492925
3599.1506,13.556505382859196,6.371533552857015
3599.9788,13.548060575777624,8.251510466413432
3600.8088,13.539448130994364,7.344753338525377
3601.6372,13.524222982814939,6.399907381143751
3602.4678,13.500642988449052,7.180909127402913
3603.2964,13.472066006942109,6.514725130188795
3604.1252,13.442632598404884,6.73747199893965
3604.9565,13.41325656587987,6.177629500677423
3605.786,13.381854803480035,6.489813040906955
3606.6172,13.34663448633326,7.371083805868053
3607.447,13.310015587500983,6.709341667356833
3608.2788,13.278001144714574,6.9515686663615535
3609.109,13.258073211799482,6.253343833888006
3609.9392,13.255155475737046,7.863188787876365
3610.7717,13.268774138763677,6.191922674437115
3611.6023,13.291860190041064,6.574156980994228
3612.435,13.314013692644151,6.090898941231142
3613.266,13.326424672440764,6.07057284635742
3614.0994,13.325642133845061,6.113119709651487
3614.9307,13.312932758862758,7.13596273981085
3615.7625,13.29179747805625,6.4213746200826085
3616.5962,13.266104741304103,7.281936877040172
3617.4282,13.239778350291367,7.682736482860002
3618.2625,13.215830910186295,5.927443085285468
3619.0947,13.195538300360734,7.1874773642549075
3619.9292,13.177092627156894,6.2818149298786565
3620.762,13.157093866582308,7.29793634270267
3621.595,13.133171198229288,6.9416688098114285
3622.4302,13.106812180605836,7.948326469948949
3623.2634,13.083817964705265,6.679805762977438
3624.0989,13.071045648484846,7.357927170894918
3624.9326,13.072596840102449,7.519988066066878
3625.7686,13.08681690060954,7.0063395187419335
3626.6028,13.10653121478731,6.889340329029455
3627.437,13.121807927084237,7.417600485510337
3628.2734,13.123176668684144,7.144248625111286
3629.1082,13.105035410452663,7.015871754471086
3629.945,13.068484971191051,7.683441563791758
3630.78,13.02221524128657,7.206535034456548
3631.6174,12.978349547297505,7.5505310865567195
3632.453,12.947320615215073,6.756270008551409
3633.2883,12.932889292934322,6.73360848814381
3634.1262,12.93284663866927,7.699681871984651
3634.9622,12.942051916066882,7.7729791888040385
3635.8005,12.955364656486342,7.078137555562518
3636.637,12.968419467617569,7.466744362590113
3637.4756,12.977667843053196,6.924727483476763
3638.3123,12.98067595319225,7.790839233861733
3639.1492,12.977766382734053,7.1186707091314805
3639.9885,12.972626041290884,7.037328992855567
3640.826,12.970880929888619,7.301949570006638
3641.6653,12.976771314893442,7.460976455996019
3642.5032,12.99028904028693,7.715605276025554
3643.343,13.006721190213472,7.036057767907924
3644.1812,13.01881577994709,6.960909722063202
3645.0195,13.020739136653487,7.126768916673149
3645.86,13.01013260080954,7.447282908371668
3646.699,12.987606622728672,7.58428960159437
3647.5398,12.954505147900303,8.722336711284976
3648.379,12.912537122177765,6.889923042075928
3649.2202,12.864033539144955,7.416783723622612
3650.0596,12.813265785365084,7.695816943888425
3650.8994,12.764902702557919,7.131811308082489
3651.7412,12.723504975937372,6.581168734401976
3652.5813,12.693434741931545,8.210440471285816
3653.4236,12.677902032901217,7.985697631238913
3654.2642,12.67779615418179,8.496889492230512
3655.1067,12.689322906853043,7.511333775768453
3655.9475,12.704037089028558,7.2867846669862315
3656.7886,12.712295518403536,7.506887328355934
3657.6318,12.70787832749268,7.015270672792792
3658.4734,12.690331769293127,8.72903114719866
3659.317,12.662538615406342,7.586985917318945
3660.1587,12.626688507515063,8.043349136183174
3661.003,12.582263760806935,7.275680550387543
3661.845,12.529622020116655,7.440455723713689
3662.6875,12.47291188726924,7.212664255752527
3663.532,12.420482271304241,7.04866236600026
3664.3748,12.38065903723915,8.257715509025694
3665.2197,12.355922800190394,8.487534903133012
3666.063,12.342211535048142,8.941716090441416
3666.9084,12.331580169543576,7.046926337228705
3667.752,12.317424012873003,8.806193193385909
3668.5977,12.297411037021233,8.770095525215945
3669.4417,12.273907683805174,7.497620928521354
3670.286,12.251524640255393,8.826503970738546
3671.132,12.23453142888283,8.43853579152124
3671.9768,12.225153487655426,8.02563438607347
3672.8235,12.223157812871452,7.376964287746682
3673.6685,12.226530281089357,8.392243358035397
3674.5156,12.231362608509727,8.031795383067038
3675.3608,12.23159329663832,7.800261761138074
3676.2063,12.220752816745144,7.261122568853872
3677.0542,12.195757939946715,8.113148716846208
3677.9,12.160341125267998,7.974195144232741
3678.748,12.123319923644011,8.383651258925019
3679.5945,12.094075326187278,9.006168103121361
3680.4429,12.076835741100503,8.47396135196633
3681.2896,12.069908969868393,8.735627116219275
3682.1365,12.068192742355288,8.07577204123869
3682.9856,12.067320951355697,7.92798919663524
3683.8328,12.065555858169839,8.465555788679277
3684.6824,12.062709065810632,9.06307778484747
3685.53,12.057695282818491,8.993344016759448
3686.38,12.047094592102967,9.035288856942516
3687.2278,12.02661180737916,7.711638300366867
3688.0762,11.994214947743401,8.946941332183387
3688.9265,11.9526951733773,8.135157620659946
3689.7751,11.909334899267375,7.562282942293394
3690.626,11.871751683280602,8.370548660673554
3691.475,11.844775382678991,8.290115517589193
3692.3264,11.827758467940448,9.102452520256683
3693.1758,11.815507241174206,8.747347348003263
3694.0254,11.800802231793735,8.768144433828711
3694.8772,11.778710552691864,8.741415365786366
3695.7273,11.74959999107617,8.931048956192706
3696.5793,11.717842317725335,8.894931154507034
3697.43,11.688470053269993,9.361005171660086
3698.2825,11.663890717917981,8.295892295303345
3699.1333,11.644848019907226,9.212293904195624
3699.9841,11.632016427113378,8.44034017727359
3700.8374,11.626392370597292,9.189861662675634
3701.6887,11.62731770429878,9.102978554445487
3702.5425,11.631006648919959,8.767073505801829
3703.3943,11.631945220675963,8.332174790719808
3704.2483,11.626169379395252,8.865035675592193
3705.1003,11.613558912543018,9.28193162727055
3705.9526,11.597080520340567,10.145238369299427
3706.8074,11.579759637638578,9.840995601278973
3707.66,11.56195100658876,9.712960451793878
3708.515,11.540727717511746,9.2602062657028
3709.3682,11.51332436833059,9.152317755544924
3710.2234,11.480823703835359,9.248700143848568
3711.0771,11.449865711021733,8.901970349817478
3711.9307,11.428549325671804,9.917898747195622
3712.7866,11.420532283648246,10.179872131772282
3713.6409,11.421808971361902,8.972949689924082
3714.4973,11.423268418102946,9.532697073474449
3715.3518,11.417144014608983,10.57087569013647
3716.2085,11.401500089389081,10.455657565756681
3717.0635,11.37991801529073,9.908277002183228
3717.9185,11.357629422593336,9.587452397178668
3718.776,11.338445010319788,9.360157773059504
3719.6313,11.323907635933914,9.319945690160301
3720.489,11.313114402971992,9.945579675372736
3721.345,11.303483963852456,9.561804784510592
3722.2031,11.291561137803608,8.941627776804097
3723.0593,11.27477809004239,10.564717716065351
3723.9158,11.25225788462498,9.275498166375097
3724.7747,11.224724470298247,10.019360133376294
3725.6316,11.194316218982937,9.9035808440286
3726.4905,11.163996792578548,9.371521312868053
3727.348,11.13769639595558,10.08311193947894
3728.2073,11.118492880867207,9.756692599032146
3729.065,11.107481069640299,9.082896755658238
3729.9229,11.10309589924726,9.649782190601082
3730.783,11.10207481120332,10.001330627760062
3731.6414,11.100461459429805,9.415845937893561
3732.5017,11.094793953102212,9.263958792038864
3733.3604,11.083707580061423,9.666105468253246
3734.2214,11.068626382042659,10.124899401629772
3735.0803,11.052636935213235,10.319587809755191
3735.9417,11.037479714647185,9.94246594750307
3736.8013,11.022590322785517,10.161864078071918
3737.661,11.006389457306252,9.833569701985692
3738.5227,10.988745055335016,9.625342063273639
3739.3828,10.971456600842979,10.135811908082173
3740.245,10.956128257336353,9.781143824876573
3741.1055,10.942931081299268,8.950695888110692
3741.9683,10.930947110850944,10.785174107456994
3742.829,10.920245251283143,10.133809238281433
3743.69,10.91219093820164,10.837594279929402
3744.5532,10.908012547431854,9.345297835917894
3745.4148,10.906984844540867,10.656475919747173
3746.2786,10.906377172308934,9.34291851312037
3747.1404,10.903096149967922,10.814456766926996
3748.0044,10.894728168774451,11.146222028010808
3748.8667,10.87938357407943,9.64297415728655
3749.729,10.85533035518541,10.537236898891326
3750.5938,10.821726221804827,10.567445390877241
3751.4565,10.780168842116588,9.606427106484539
3752.3215,10.734365926618553,10.377536249430847
3753.1848,10.68978478364371,10.786140708279461
3754.0503,10.650790178839213,10.812888458216873
3754.9138,10.619516787973,10.864074202416035
3755.7776,10.594848202831216,11.391831622650807
3756.6438,10.57434916751269,10.919277704852844
3757.508,10.556679431543966,10.710976270612687
3758.3745,10.542477684866236,11.377144930204452
3759.239,10.533933210987634,11.514188081962207
3760.106,10.532550393125481,12.601319257228004
3760.971,10.53767920721448,10.223709507038688
3761.8362,10.546272281158588,11.670128141434105
3762.7036,10.554132730619873,11.132797608630927
3763.5693,10.55747420211043,9.94127459131873
3764.437,10.554085866149439,10.419626759154806
3765.3032,10.543470633577591,10.52012048493961
3766.1714,10.526601299227528,10.174503834920644
3767.0378,10.50580595100622,11.131424658866864
3767.9043,10.483809610928551,11.170643616897902
3768.7732,10.462711745354026,11.16325629599587
3769.6401,10.443749188119316,10.303551587111606
3770.5095,10.427492568310551,10.894160781466697
3771.377,10.414629163080473,12.020475671626118
3772.2466,10.40512366291211,11.04086284232325
3773.1145,10.398057562080284,11.98166280077119
3773.9824,10.392170000013062,10.494513261659277
3774.8528,10.386783648602826,10.972162033345793
3775.721,10.381296517991254,11.190824628953939
3776.5918,10.373735471241835,10.732708659353463
3777.4604,10.361057699552685,10.826953746851803
3778.3315,10.341307843434574,9.339703328603399
3779.201,10.31620824144107,10.28380168627436
3780.0703,10.290469871827586,11.808040753540691
3780.942,10.26878512432001,11.923355947396635
3781.8118,10.25283042988922,11.826083766109578
3782.6838,10.24024084295736,11.448351220325746
3783.554,10.226998893042728,11.693036400674382
3784.4265,10.21019058365944,10.51678944540819
3785.297,10.19005882179409,11.872293981875966
3786.168,10.169189796229341,13.872963447704487
3787.041,10.150646699695544,11.247370205088288
3787.912,10.13627302273581,12.135446291812366
3788.7856,10.125625754523107,13.009686483526027
3789.6572,10.116453285697235,12.438250678506503
3790.531,10.105509367413562,12.384324749453054
3791.403,10.090518885257037,11.415028891826974
3792.2754,10.071459211918977,11.13458564349232
3793.15,10.05041961365165,11.840852650274618
3794.0225,10.03001670675705,12.850701043013009
3794.8972,10.011352139322568,11.46460345351109
3795.7703,9.99413362613872,12.578937812734265
3796.6455,9.977299416971062,12.207159692522923
3797.519,9.960404994762774,11.750889347925684
3798.3926,9.943847440156953,13.14285150732362
3799.2686,9.928890316376544,13.358175336769412
3800.1426,9.91748563274083,11.677276929707862
3801.0188,9.91175758016138,12.88985638890514
3801.8933,9.913728725910177,12.111561159222127
3802.77,9.923897614841831,12.789249956316544
3803.6448,9.939142371268561,11.86787629735947
3804.522,9.95211685943509,12.319983717658307
3805.3972,9.95371699693881,12.17157425187745
3806.2727,9.938518665302215,11.390157653027963
3807.1504,9.90799330872333,11.83861674519827
3808.0261,9.869552910670247,13.68421770104716
3808.9043,9.831367743872823,12.453147047004725
3809.7805,9.799170578588093,11.94580422497833
3810.659,9.774664529041507,13.934583283469115
3811.5356,9.75715239184194,12.238368933846003
3812.4126,9.744242416224397,13.881344383949767
3813.2917,9.73306829929539,11.933778724002746
3814.169,9.721991075342657,12.226479939990943
3815.0483,9.712142891237788,13.10847136621923
3815.926,9.707245950702779,11.925173308844029
3816.806,9.710197498301657,12.925871965391561
3817.684,9.719465570550803,14.658782933776003
3818.5623,9.728682526146175,12.505942160839476
3819.4429,9.730309415102989,10.788711469844838
3820.3215,9.720335068937858,13.662031533805909
3821.2024,9.700081077804894,12.99226032338595
3822.0815,9.674337701059628,13.81400933666295
3822.963,9.647654472379164,13.191105542451561
3823.8423,9.62283483778796,12.623264597381697
3824.722,9.60060003374159,13.85447406564509
3825.604,9.58060768645239,12.433894375700932
3826.4841,9.561994436575919,13.227468803412638
3827.3665,9.543245514433286,12.920545975503071
3828.2468,9.523295895099897,13.19568398234866
3829.1296,9.502345182092798,14.135838777847782
3830.0105,9.482809205488683,13.792575290208232
3830.8916,9.468074491885504,14.065698096990308
3831.7751,9.460850409464497,13.938629668961658
3832.6565,9.46159133264945,14.42125292560899
3833.5403,9.46813576204715,16.001443004284564
3834.4224,9.476940978585187,12.743201093794887
3835.3064,9.484975440777552,12.01618225605508
3836.1887,9.490434021299132,13.782672601991974
3837.0713,9.491976720469726,13.42452845133688
3837.956,9.487322070552569,13.354177547468176
3838.839,9.473572943950767,13.95257455152246
3839.7244,9.449118194277156,14.08869683579724
3840.6077,9.41536671549881,13.526152440087936
3841.4932,9.374813099923534,13.007621278580034
3842.377,9.328084819194302,15.346602812312758
3843.261,9.272133550724966,12.150122915174789
3844.1472,9.205071845362804,13.391146193139727
3845.0315,9.134440942364783,13.623030974275837
3845.9182,9.077994800686783,13.972211203088955
3846.803,9.055275404143078,16.134166639269463
3847.69,9.072218076449417,13.88769181832997
3848.5752,9.116114543087322,13.25523593740421
3849.4604,9.164723506803432,14.697917704625944
3850.3481,9.200628653929453,13.742520851634904
3851.234,9.218116924327978,14.450543551937256
3852.122,9.22089109349152,16.72615621083132
3853.0083,9.214847609987029,13.203624176376172
3853.8967,9.203818983446174,13.983393644679552
3854.7832,9.189278407262584,15.168943265701136
3855.6702,9.171842999385897,14.69521805688802
3856.559,9.152772491049232,15.044825852722443
3857.4463,9.134360757518309,14.619031840828779
3858.336,9.118921265797834,14.539890648078394
3859.2234,9.107914077844319,14.293164212006115
3860.1135,9.100753354019421,15.776315684671914
3861.0015,9.095108555763984,13.981618788906072
3861.8896,9.087896616314236,14.958494382356669
3862.7803,9.076913254260633,14.167978206214357
3863.6687,9.06198567862849,15.5588728619543
3864.5598,9.04477076605946,15.31531693291082
3865.4487,9.02803488366675,13.776218835972097
3866.34,9.013530239119309,14.295228620520163
3867.2297,9.000724731763992,13.88599470092144
3868.1213,8.986535706627015,14.046851821011042
3869.0112,8.96740573321502,15.943721289863328
3869.9014,8.940840183253268,17.43212067861641
3870.7937,8.905325016519857,14.244153060726664
3871.684,8.859791788422466,15.864512181453504
3872.577,8.804135879402219,14.746022587756627
3873.4678,8.743542527493588,14.97346198970381
3874.361,8.689035178894073,14.766953319788653
3875.2524,8.65349013009463,14.85926935864585
3876.1438,8.639976989055638,16.104046125650502
3877.0376,8.633971063683413,16.088240413426593
3877.9297,8.605638597328669,16.569704144835196
3878.8237,8.524703654017694,14.539746648980588
3879.716,8.38294915057569,14.662791111655253
3880.6108,8.208568023961638,17.61916373503135
3881.5037,8.06298274849914,15.945867222967548
3882.3965,8.006166366101251,17.296568152424637
3883.2917,8.059910983859554,17.125635256766465
3884.185,8.193481445822245,18.87598325451111
3885.0808,8.348436080534245,17.7682671343492
3885.9746,8.474369253366051,15.910201300435723
3886.8706,8.552292359786115,15.998479580239405
3887.765,8.588066147012436,16.622139159515722
3888.6592,8.59780504207312,16.321612814418163
3889.556,8.594713649930638,15.98103454053421
3890.4507,8.585807118529592,16.729914460917804
3891.348,8.574155601095791,16.323400558893884
3892.243,8.562339940496175,17.007631775977995
3893.1406,8.553550182766747,16.197795427233917
3894.0361,8.550984947553438,15.671347790476949
3894.932,8.556304338082393,17.18494039098034
3895.83,8.569224651691083,16.365340643331436
3896.7263,8.587685459209872,16.558571001554228
3897.625,8.608619859540065,16.37707837503665
3898.5215,8.627906286867377,15.180986720274142
3899.4207,8.641336031718069,16.81220797488933
3900.3176,8.645768146251218,15.527097393963992
3901.2148,8.641295661105891,17.211312445397965
3902.1145,8.631553964310672,15.390829270416424
3903.0122,8.621872636958402,17.259515527823908
3903.912,8.615781721564806,17.42333144929714
3904.8103,8.613302992421637,16.122582484914084
3905.7107,8.612031684875777,15.013758561135205
3906.6094,8.60998940238054,16.015882140049907
3907.508,8.607251853176681,16.828294558615273
3908.409,8.605364017677246,15.878662437266149
3909.308,8.605565336105169,16.956963701648355
3910.2097,8.607264406780494,16.86730317801492
3911.1091,8.60774171539055,17.843496940039174
3912.011,8.603501364133074,15.489609584297735
3912.9111,8.592748049187596,16.810236521865594
3913.8113,8.576915102564403,16.98865688239916
3914.7136,8.559604957616774,15.504443375325206
3915.6143,8.544095554852712,16.078648700795224
3916.517,8.53158674014419,17.118076776867436
3917.4182,8.522254126898696,17.251233784146986
3918.3215,8.516402854507493,17.430795778572868
3919.223,8.514612913517583,15.381975737565904
3920.1245,8.516244522871874,16.46746411453939
3921.0286,8.51749100952381,15.6985175003897
3921.9307,8.508223906913235,16.320323777734743
3922.835,8.467193562568808,15.701670876239831
3923.7373,8.359954360011427,16.110075361806185
3924.642,8.14746237018592,17.754765822070425
3925.5452,7.818474545790259,17.579633344060543
3926.448,7.424518258582146,15.750954588171581
3927.3535,7.086056103368096,16.067937055115912
3928.257,6.940797803446301,0.22974314439330795
3929.1628,7.0490738826878765,16.36643765989565
3930.0667,7.351074337170428,16.46157312506198
3930.9731,7.712002273368005,16.14267980814389
3931.8774,8.007138628893811,16.807879887650184
3932.782,8.1862973577447,16.046170905421352
3933.6887,8.26493864389234,16.7908324224316
3934.5938,8.285892282018613,20.54318327696011
3935.501,8.287038149078153,16.818867105684475
3936.4062,8.28838143249325,16.608059135943563
3937.3142,8.294893268958544,16.82499871675522
