wavl,flux,ivar
3566.9744,10.014154940822795,8.619606294988472
3567.795,9.974994988143221,8.485138834751684
3568.6177,9.927613337439183,8.099478264583134
3569.4385,9.8803944822149,10.317228268337544
3570.2617,9.840836781489227,8.990074991879698
3571.083,9.815718598357558,7.784278973994142
3571.9065,9.80924739428468,8.766363895389851
3572.7283,9.822349638069419,9.3012766695589
3573.55,9.852875741655435,7.059181640286582
3574.374,9.897692378853636,9.129598747552588
3575.1963,9.952642729193608,9.248387080729735
3576.0208,10.011019353539252,9.784931471481661
3576.8435,10.060426426738307,9.485189672884527
3577.6682,10.086302376402651,8.964911504919316
3578.4915,10.078401317802635,8.711434722798897
3579.3145,10.037349876308756,8.493254383775122
3580.14,9.973569252812409,8.442051102861404
3580.9636,9.902196000660489,10.431818941050134
3581.7893,9.836315168874727,9.501284567160086
3582.6133,9.785964801579652,9.271522689067252
3583.4395,9.756901249637853,9.60743803338748
3584.264,9.750469288901158,7.9251691999794724
3585.0884,9.761198659564348,8.959367391204985
3585.915,9.777476863769543,8.221545212949275
3586.74,9.785760607079814,8.602692627058246
3587.5671,9.777503308280737,9.797332400927594
3588.3923,9.752915805405507,8.906008202468232
3589.22,9.718796475583071,9.60431094674209
3590.0457,9.683763585865497,8.20345863712167
3590.8716,9.653897595525292,8.517009081499474
3591.6995,9.632200234297695,9.913417812488351
3592.526,9.618892463022375,11.069177231356164
3593.3542,9.611253990865066,10.384506961124663
3594.181,9.604620868623854,9.496682067135465
3595.0098,9.594191791713317,9.625847285152423
3595.8367,9.577501396788346,8.060201679580624
3596.6638,9.555347782961842,9.874073222750507
3597.4934,9.530967968512714,9.928629760679792
3598.3208,9.508010659699195,9.313262621066787
3599.1506,9.48792530062804,8.547893205011304
3599.9788,9.46984242613419,9.98980359408596
3600.8088,9.451321388007312,8.613871783778617
3601.6372,9.431015423276557,8.734777421807365
3602.4678,9.41077448288142,9.40616117575096
3603.2964,9.39677921637153,10.677103698013433
3604.1252,9.396479896614336,10.554727339539497
3604.9565,9.413626450751188,10.810722559241734
3605.786,9.444452804902859,9.62246235140718
3606.6172,9.479859666481401,7.905379825068884
3607.447,9.510669853382167,10.216765469004766
3608.2788,9.532408195395924,13.783373816056416
3609.109,9.544389123306887,10.864489991097551
3609.9392,9.546940670453267,10.212146596682675
3610.7717,9.539448680089599,7.796662839399281
3611.6023,9.521461465128759,10.004752457957622
3612.435,9.49388047544943,9.648826019998712
3613.266,9.45910160017877,10.054218274874293
3614.0994,9.41934357705753,9.546586910331033
3614.9307,9.376826446014737,10.42233545391202
3615.7625,9.333646104290075,10.894805613523827
3616.5962,9.292551527846404,11.507894119862476
3617.4282,9.256669567230517,11.262311726758172
3618.2625,9.22804456388268,9.601618921330637
3619.0947,9.207857797599903,9.124824975921278
3619.9292,9.19598377324948,8.504597048638617
3620.762,9.191514223541777,10.697681559385112
3621.595,9.192477828645984,9.96871927927031
3622.4302,9.196224401054138,11.222183052793785
3623.2634,9.200046941746642,10.118840274181691
3624.0989,9.201823760597248,10.016437583780945
3624.9326,9.199987274253335,10.072852189993995
3625.7686,9.193529354416702,9.527264668397317
3626.6028,9.182551176055156,9.99420409834432
3627.437,9.168499812140295,10.560378331614304
3628.2734,9.153130738332269,11.25869182392887
3629.1082,9.13680757475512,10.471428479419625
3629.945,9.117949530778324,10.809773735008182
3630.78,9.095909667278645,11.365125221622641
3631.6174,9.07376480061676,12.731665948039748
3632.453,9.058841985831926,11.911291120167958
3633.2883,9.058415740195636,9.688309613845162
3634.1262,9.074898601619235,9.711524071817637
3634.9622,9.102792253908392,10.872217201503
3635.8005,9.130754381095265,10.619027244273697
3636.637,9.147002107815137,8.624183354787329
3637.4756,9.146224189724455,9.409774379722252
3638.3123,9.131322571401856,10.259265009256184
3639.1492,9.109499037039125,9.383864077772746
3639.9885,9.086346578434892,9.355044653143752
3640.826,9.063554900897614,10.29908772014549
3641.6653,9.039943396658295,10.03322217501522
3642.5032,9.014555238293466,11.70941760032335
3643.343,8.988057568580393,9.750037647568384
3644.1812,8.963727216399311,10.86277874430727
3645.0195,8.94609386370196,11.519048685043273
3645.86,8.938832539328141,12.409473760499681
3646.699,8.942623902900888,9.75552838653761
3647.5398,8.954847450226705,11.533081748858931
3648.379,8.970848311259283,10.675157974931253
3649.2202,8.985419512435033,9.817059036292907
3650.0596,8.993542259679145,9.83495464859435
3650.8994,8.991943427352629,10.964690903865698
3651.7412,8.98022583500555,12.40014432019812
3652.5813,8.961136938779582,12.89810557068685
3653.4236,8.938848913094517,10.631126538149491
3654.2642,8.91733126312884,9.730453102197584
3655.1067,8.898637814463225,11.103462817691254
3655.9475,8.88265826991729,10.641237356123089
3656.7886,8.867025351707209,9.830070118459771
3657.6318,8.848659698472561,10.713195777651315
3658.4734,8.826338659280243,10.694064758316753
3659.317,8.802313861265231,11.26806310154483
3660.1587,8.782113244451917,12.190460913043001
3661.003,8.770770981509944,10.60862942706154
3661.845,8.769271757811286,11.2931574235889
3662.6875,8.773271719078664,9.085311860905215
3663.532,8.776103078498199,11.221008059499036
3664.3748,8.773082675206371,11.727286197791498
3665.2197,8.763912807514899,11.851846671961415
3666.063,8.751559368200319,11.703813905145127
3666.9084,8.738848552869966,10.55201975369144
3667.752,8.726254814378152,11.46042511264304
3668.5977,8.711752707026712,12.12864920701317
3669.4417,8.693026825484903,10.169288160908202
3670.286,8.669415847521778,13.245348035797843
3671.132,8.6432416912393,12.287578386331916
3671.9768,8.619688375347076,11.00371918585299
3672.8235,8.604264941351785,11.311205058023965
3673.6685,8.599912803197144,10.772817497336732
3674.5156,8.604653630347501,10.303615409855617
3675.3608,8.61248421005148,11.09647308957328
3676.2063,8.61689893513044,12.534745001621987
3677.0542,8.614566105013568,10.759396607484367
3677.9,8.606711592272053,11.73695709983671
3678.748,8.597138182340574,11.821907069807926
3679.5945,8.588995970060463,11.993434330553782
3680.4429,8.582733024764797,11.085684015802325
3681.2896,8.577112367766961,11.7625318994745
3682.1365,8.571313166174606,9.546911100230787
3682.9856,8.56603527784973,11.756126842353437
3683.8328,8.562606010039845,9.521907100055413
3684.6824,8.561290122073864,11.711523082661733
3685.53,8.560630866615947,12.068373679251616
3686.38,8.557772453543526,11.221433212297722
3687.2278,8.549318845723764,10.553568491443203
3688.0762,8.532360264245565,11.477323086063699
3688.9265,8.505955910720754,10.375645246055551
3689.7751,8.472800279329125,12.098166911826784
3690.626,8.438686931158129,10.903738928490462
3691.475,8.410478873711742,11.796337597751952
3692.3264,8.391780960290951,11.859438066656049
3693.1758,8.381476184276993,12.131392831259845
3694.0254,8.375101996786608,11.555283539586503
3694.8772,8.368782888160984,11.347844776709554
3695.7273,8.361426060401374,12.760730145089408
3696.5793,8.3535864083679,12.953432985590963
3697.43,8.345004759235687,10.77983049790222
3698.2825,8.333243242279234,13.349739979547612
3699.1333,8.31523441671098,12.147149164421876
3699.9841,8.289999047941542,12.637824457849447
3700.8374,8.260620455447178,12.260004693584097
3701.6887,8.233821761559346,12.798585794244332
3702.5425,8.216221198780943,13.725675639311362
3703.3943,8.211293304007539,11.842223468829822
3704.2483,8.217588274086907,15.322333754756976
3705.1003,8.229933527978659,11.803704923282242
3705.9526,8.241819043698516,15.720773553414
3706.8074,8.247604545008253,12.802380721551536
3707.66,8.244114478559744,11.094031017171975
3708.515,8.2315194959795,12.353475116389033
3709.3682,8.213278054549859,14.396001723205455
3710.2234,8.194872904024608,12.572550165822737
3711.0771,8.18190303524874,12.739999931066238
3711.9307,8.17667318013372,12.298289923045667
3712.7866,8.175798807963938,14.36911612052925
3713.6409,8.171037801413258,13.263695376060733
3714.4973,8.154399874816036,14.243909031554736
3715.3518,8.124349549824148,11.231339875238913
3716.2085,8.087124345028911,12.812643790944973
3717.0635,8.052880586608703,14.709892832304988
3717.9185,8.028551409976519,11.546572254166794
3718.776,8.014613782874562,12.772630482083013
3719.6313,8.00642881515891,13.594818154553218
3720.489,7.997703316090323,14.467367461672088
3721.345,7.983809460849212,12.135955945924527
3722.2031,7.963225194444732,13.313537140373567
3723.0593,7.9384535378196635,13.174436158035538
3723.9158,7.915011943897532,13.749439835091938
3724.7747,7.898985636774227,14.630903203162813
3725.6316,7.893570705248539,15.291317065498305
3726.4905,7.896759806002368,13.097316964743163
3727.348,7.902536442811832,16.403878773810618
3728.2073,7.9042526816522685,11.746981442736779
3729.065,7.897860108150315,14.62388052507343
3729.9229,7.883020178332217,13.098853104676092
3730.783,7.862011218874226,14.201028768630334
3731.6414,7.838589562749328,13.911473805606894
3732.5017,7.816871842012832,14.058375491850807
3733.3604,7.800662340476799,13.955065634972506
3734.2214,7.791292408043646,13.217439921904242
3735.0803,7.78687077594195,17.97396291418842
3735.9417,7.78365642759718,13.235339499387315
3736.8013,7.779427748287768,15.049533307536803
3737.661,7.775102003014137,14.962715355808504
3738.5227,7.773216026667963,15.00894992440602
3739.3828,7.7749749866691475,15.1872381502231
3740.245,7.778900499750454,12.225848100468465
3741.1055,7.781996827247732,15.192037755368657
3741.9683,7.781770363941414,14.042318137588007
3742.829,7.777060015644818,14.630300267613551
3743.69,7.767651149986443,13.724626289419898
3744.5532,7.753695625685129,15.340022255953397
3745.4148,7.736091309016038,14.178009756824542
3746.2786,7.716920218694931,16.023232278027674
3747.1404,7.6998253565419645,15.389620211252975
3748.0044,7.688453332077954,15.953826854763264
3748.8667,7.684767150056652,14.760768306437441
3749.729,7.687457890194767,15.660583728002258
3750.5938,7.692352503836131,14.55686536640274
3751.4565,7.694359227408677,13.464358074850026
3752.3215,7.690392011340084,13.384762317475989
3753.1848,7.681205112411816,15.592735389026508
3754.0503,7.670578280710007,15.597908576087994
3754.9138,7.662388110424866,13.808118850854447
3755.7776,7.657469879990148,15.438418429097158
3756.6438,7.653304994816018,14.078174231592849
3757.508,7.646310179344159,14.503769398242612
3758.3745,7.634470779609121,13.483825400199754
3759.239,7.618346573520676,15.072290879059048
3760.106,7.599743335221852,14.57399024149975
3760.971,7.580748619690604,17.54742633210873
3761.8362,7.563196276403107,14.382678718405808
3762.7036,7.548924059577,16.44469641159719
3763.5693,7.53906152199513,16.52142082920199
3764.437,7.532630327181662,15.767551781681568
3765.3032,7.52678248970558,15.438333387050006
3766.1714,7.5183614401635195,15.584289562150744
3767.0378,7.50578980314196,16.555175894119166
3767.9043,7.489350356693676,14.883338317724725
3768.7732,7.470501484824636,14.93086953692332
3769.6401,7.451457951255462,15.27277226877189
3770.5095,7.434730294468128,14.48967945909893
3771.377,7.42332833645728,16.721145293317417
3772.2466,7.419778656325492,14.801379802431573
3773.1145,7.42522411111644,16.50048140416237
3773.9824,7.4383229524768595,14.303165142381124
3774.8528,7.4550263783056225,14.531689412602656
3775.721,7.469148461021989,15.75195323616466
3776.5918,7.474703543117818,13.839837943608782
3777.4604,7.4682774288927645,16.243309038803083
3778.3315,7.450719316929511,14.799671418306525
3779.201,7.426544565155933,16.33328258530359
3780.0703,7.401046990863409,14.021606396707972
3780.942,7.377625107862748,16.225061993873055
3781.8118,7.357027942910067,14.456977547096704
3782.6838,7.338066680879323,15.894118194242983
3783.554,7.319638770803329,17.445768936930246
3784.4265,7.301145277878917,16.083619668146984
3785.297,7.282887394722638,14.85041825002666
3786.168,7.265811813977975,17.14659800621601
3787.041,7.251803619740841,16.43320016830445
3787.912,7.243256673467352,15.732558734551784
3788.7856,7.241538289025445,16.836249751405564
3789.6572,7.245757184378546,18.70479790121108
3790.531,7.252437420030981,16.579989330386784
3791.403,7.2568019058836235,15.267069896690783
3792.2754,7.255036650878447,16.917418519096085
3793.15,7.245789057241714,15.32330767999372
3794.0225,7.230458761465995,17.02161240027395
3794.8972,7.21195163105477,15.48261861043174
3795.7703,7.193397933261622,16.73920245884628
3796.6455,7.176675218735847,17.155671206865463
3797.519,7.162521298968541,18.850355813312877
3798.3926,7.15097399541782,14.876348140775434
3799.2686,7.142137871481205,16.889911891026312
3800.1426,7.13587050818397,18.311476374082016
3801.0188,7.130617831406204,16.113577220890747
3801.8933,7.123399525722979,17.465255788120498
3802.77,7.111248516159368,15.955844948842307
3803.6448,7.093566223147244,18.17502018804844
3804.522,7.072761140968943,17.121290018855415
3805.3972,7.053364239868747,17.630430394473983
3806.2727,7.039242419544249,18.316947242479095
3807.1504,7.031584751217431,18.004312924987318
3808.0261,7.028117722401841,18.51159995118291
3808.9043,7.0243363356081385,15.497395323917932
3809.7805,7.016482732983562,16.48352573297434
3810.659,7.003741605894228,16.64512769589917
3811.5356,6.988354926005613,17.78642024184761
3812.4126,6.973547377882841,15.9352555985999
3813.2917,6.961756165941755,16.02466706903379
3814.169,6.95385260273445,17.443641218952276
3815.0483,6.948755244127995,20.33103943773707
3815.926,6.943906029417839,16.627384631635557
3816.806,6.936499168878854,17.898281095809125
3817.684,6.925606307302518,19.284686047077123
3818.5623,6.913046883356569,17.31475888268042
3819.4429,6.902183717164761,18.420467470613467
3820.3215,6.895484340937968,18.289963383526523
3821.2024,6.8924160898289335,17.3520616812023
3822.0815,6.8894963391112,18.449687905767767
3822.963,6.882004365154544,18.837460556794607
3823.8423,6.867003182762126,16.14911969798849
3824.722,6.845652576937441,18.025384497214112
3825.604,6.823268754451177,17.746430449954506
3826.4841,6.806707792759206,20.237196550207763
3827.3665,6.800076732624161,20.19412306648958
3828.2468,6.8027392469804795,21.111083608324684
3829.1296,6.809919475662176,18.45923773736897
3830.0105,6.8156438265813835,19.285266494975804
3830.8916,6.816078829907534,16.677153870352818
3831.7751,6.811117215839419,17.252605021849117
3832.6565,6.80367368754967,19.7852187712908
3833.5403,6.797039602046334,18.493847194749804
3834.4224,6.79260524834219,18.085654972143413
3835.3064,6.789053751894751,18.90572288340847
3836.1887,6.7835581388271695,17.38910449341618
3837.0713,6.773597174287428,20.7711941634017
3837.956,6.758446112263823,18.77783304283665
3838.839,6.739941097153899,18.587150458305327
3839.7244,6.72187217877527,16.64080325252971
3840.6077,6.708692349057527,19.39681418745838
3841.4932,6.702544338122041,20.617547949317434
3842.377,6.701334591254373,19.416527306419244
3843.261,6.699343471176529,17.1310452297288
3844.1472,6.6909654282818485,18.85878422749749
3845.0315,6.674395406768211,19.66597644601636
3845.9182,6.652003244907823,19.050068031906147
3846.803,6.628460013030287,21.116165644059755
3847.69,6.607937940424374,18.86485540877166
3848.5752,6.5933081356733005,19.406629742173656
3849.4604,6.585390668780156,20.192411432797552
3850.3481,6.582992329359665,19.95950827326131
3851.234,6.583407327658993,18.7758746102857
3852.122,6.583819500639644,19.838653749855
3853.0083,6.582750586235509,20.394053749663758
3853.8967,6.580207647421763,21.384836308374187
3854.7832,6.576487185245443,18.930399986175267
3855.6702,6.570877522705058,19.285775964526692
3856.559,6.561811480421895,19.15396414444273
3857.4463,6.548479874307556,20.643196818825484
3858.336,6.5319161157260845,18.86633095729319
3859.2234,6.5146573706947475,19.370244566155236
3860.1135,6.498619886909177,20.770732976925686
3861.0015,6.484481873310067,19.27915576217902
3861.8896,6.472096163391625,20.434145550349932
3862.7803,6.46172332278562,20.441206365101284
3863.6687,6.454011277487578,20.38500871769756
3864.5598,6.448972219329557,23.22321689494763
3865.4487,6.4459543516173055,18.089200035749517
3866.34,6.444273567201241,19.38969813580569
3867.2297,6.443805152084725,21.380309730604647
3868.1213,6.4444146195382,18.678108328767323
3869.0112,6.444966798350289,19.822486632207962
3869.9014,6.442898806588928,17.669866411648563
3870.7937,6.434781806554559,19.15762872826462
3871.684,6.417984979536137,20.129238167133803
3872.577,6.392481988182063,20.862376884100545
3873.4678,6.362180546319667,23.867199766987415
3874.361,6.333059003559192,22.268702260658372
3875.2524,6.310424160449525,19.941416721514816
3876.1438,6.295881280687858,22.972955661103228
3877.0376,6.287777623300472,25.218698142693285
3877.9297,6.28324855152462,20.131755014992038
3878.8237,6.279656163095931,21.41857538199796
3879.716,6.27481147813623,22.4596272208533
3880.6108,6.266648162279633,20.92921749924568
3881.5037,6.25385149545799,22.450070773813025
3882.3965,6.236579871055186,24.574017846219927
3883.2917,6.216546357310393,22.7988046468704
3884.185,6.196316676051932,25.61284975343144
3885.0808,6.17772890669497,22.125610553126045
3885.9746,6.161528278670771,22.1903751211483
3886.8706,6.147297045742331,22.158775662780936
3887.765,6.13492104380375,22.100018251978003
3888.6592,6.1253191201693316,24.31393820220738
3889.556,6.120102154766002,23.53934971551675
3890.4507,6.119841463157375,23.22781596793206
3891.348,6.1226903057650155,21.624117632463822
3892.243,6.1251791091430485,22.09619746364752
3893.1406,6.124715624606101,23.94120106033967
3894.0361,6.121579752328638,22.993758116081583
3894.932,6.1187207479833585,22.094242020745853
3895.83,6.119613574500533,26.734636131844486
3896.7263,6.125928579082691,21.43787484963575
3897.625,6.136632879690289,24.54327489762711
3898.5215,6.148587167189186,22.821652675853755
3899.4207,6.158401275667039,22.097843508340556
3900.3176,6.163867097218682,21.97168441840094
3901.2148,6.164952999104656,23.729656637122435
3902.1145,6.163248597543126,23.18024306854803
3903.0122,6.160816647184544,22.24288565742968
3903.912,6.159070609112498,19.959717569970874
3904.8103,6.1583095732693165,22.949418151599573
3905.7107,6.15772924812079,22.16679639345114
3906.6094,6.155981287965575,21.059112360668596
3907.508,6.1520987950142585,21.066451071874063
3908.409,6.14615675951091,24.190603304489237
3909.308,6.139134378665169,22.088781659142253
3910.2097,6.132106764392226,22.932030234280887
3911.1091,6.1260296116078585,23.438001821540496
3912.011,6.121811434847828,21.309060710850265
3912.9111,6.120450801811293,21.174111097266593
3913.8113,6.1222684914367465,24.04881960237904
3914.7136,6.126085783443768,23.72934518135154
3915.6143,6.129286718159335,23.494951614920698
3916.517,6.1294077950265855,21.78738833506608
3917.4182,6.125888252139041,21.79040085405971
3918.3215,6.120333928114351,22.59778178026854
3919.223,6.1150206690430124,24.163171379728897
3920.1245,6.110960792098637,23.585345557011422
3921.0286,6.107385768386084,21.59734876985879
3921.9307,6.102716484044998,22.575335391033857
3922.835,6.095992037829531,21.703093286038865
3923.7373,6.08785245072101,24.27091598004836
3924.642,6.080133620658718,21.444848520292027
3925.5452,6.074783044410555,20.492836912939527
3926.448,6.072419642472544,21.46434776442179
3927.3535,6.071873939736371,22.6758364554458
3928.257,6.070732056201405,23.609869134472408
3929.1628,6.066598534860774,23.146212963389093
3930.0667,6.058402439189774,22.22135690330059
3930.9731,6.046747159011891,24.040689413929666
3931.8774,6.0333719456974695,23.340574453454195
3932.782,6.0197722094177255,24.757967827352985
3933.6887,6.006795144105228,21.418076747646488
3934.5938,5.995157605304261,26.61915555088057
3935.501,5.98565538574884,24.368182757576765
3936.4062,5.9788697066177745,24.32036348925396
3937.3142,5.97402186417081,31.268588305135715
3938.22,5.968832529750793,23.345165356527524
3939.128,5.960591679030991,26.249815349180473
3940.0342,5.9483760414045905,20.657392676107634
