wavl,flux,ivar
3566.9744,7.3529239762018035,4.514971217200007
3567.795,7.366344175583715,5.776504686007055
3568.6177,7.359861097957074,4.253114559411049
3569.4385,7.341318939443337,5.526563350718842
3570.2617,7.318389882407272,4.2275130065073245
3571.083,7.294584400276339,4.666027762784325
3571.9065,7.26892213396915,6.154181065148145
3572.7283,7.240492092317427,4.732119518647706
3573.55,7.2117004957162845,5.608192396793758
3574.374,7.187573241436471,4.5200920296976905
3575.1963,7.1714288232162815,6.255607922358278
3576.0208,7.161322963596201,4.338562602062245
3576.8435,7.151834320101211,4.647228977688681
3577.6682,7.138000775319779,4.570206499386941
3578.4915,7.118037533043104,5.367374188670119
3579.3145,7.092036116669291,6.401665336754127
3580.14,7.059230688608117,6.969855554793755
3580.9636,7.017789387045837,5.461095416081912
3581.7893,6.967274866415821,4.574348757938952
3582.6133,6.913438759528261,6.627232622221628
3583.4395,6.867837948010037,5.1830145387434525
3584.264,6.843986820580622,6.0880523379254505
3585.0884,6.849627421769846,6.484843939306435
3585.915,6.88292086165756,8.841115079906253
3586.74,6.932513708058379,5.603913195337029
3587.5671,6.9830126680196924,4.901543353449662
3588.3923,7.02067734497402,6.190478710711274
3589.22,7.03891368319004,5.4880422387732715
3590.0457,7.038001454641465,5.704617187251138
3590.8716,7.0222341237233525,4.8963338858931795
3591.6995,6.99599476715849,5.887320380973532
3592.526,6.9631997181026986,5.332578839637688
3593.3542,6.928272251282815,5.303091303733035
3594.181,6.897070301455027,5.064445718734714
3595.0098,6.873941148267777,6.102790101648493
3595.8367,6.859078717390228,6.232297019137132
3596.6638,6.847632172111096,5.250816230502922
3597.4934,6.833093036112573,4.848065770514256
3598.3208,6.811686827216125,6.130818947480869
3599.1506,6.784427494782547,7.673859632831761
3599.9788,6.7573320887358905,5.6816883681232815
3600.8088,6.739151097581072,5.369059713815454
3601.6372,6.738476146474435,6.386467213864115
3602.4678,6.758026656008777,5.920502417889845
3603.2964,6.789634158806809,10.886961931850706
3604.1252,6.816479846989125,5.279080280416309
3604.9565,6.824164127374871,7.1786729993876435
3605.786,6.812808042625457,4.790041710815124
3606.6172,6.797879232792691,7.093797777267714
3607.447,6.798043888693434,8.038172586158707
3608.2788,6.821500963346888,6.844863850214803
3609.109,6.861877327405405,5.221825219401901
3609.9392,6.903798831536515,5.958019066723174
3610.7717,6.930197988900014,6.849070754611944
3611.6023,6.927900069823416,4.064770756130315
3612.435,6.892786752380048,4.857865381589437
3613.266,6.833220580465647,6.544199890753212
3614.0994,6.7676884425219335,5.482249888872211
3614.9307,6.717067370018303,5.301559423027013
3615.7625,6.692505622689738,4.662264481169749
3616.5962,6.690616481377043,6.0665258104998045
3617.4282,6.697350783378142,4.684795361855552
3618.2625,6.698652074926617,5.629598092720777
3619.0947,6.6889595128410715,5.527881016524899
3619.9292,6.671156972423084,5.594550489955529
3620.762,6.65003095553089,6.956901703631538
3621.595,6.6265217793010205,5.246760954881284
3622.4302,6.598770575587591,4.960274823855342
3623.2634,6.567317136434919,5.28507160082688
3624.0989,6.537250929725288,6.6399450394578405
3624.9326,6.516125249365682,6.1353916590940685
3625.7686,6.508140513185558,6.332514500145163
3626.6028,6.5112108556067865,5.87984600260114
3627.437,6.517953179911827,7.6702167073327985
3628.2734,6.519974170076148,6.423413659176614
3629.1082,6.511630664599056,6.636862799610324
3629.945,6.491661364171688,6.132324047962738
3630.78,6.463167154851709,6.863756087995937
3631.6174,6.431510412205514,7.967345743456481
3632.453,6.401646290551188,5.848427233380929
3633.2883,6.374742727041226,6.004419375795257
3634.1262,6.348704690637449,8.765632512419492
3634.9622,6.321545414286896,6.676426333064603
3635.8005,6.293395934492594,8.009807573098167
3636.637,6.266340377193896,5.415393461481475
3637.4756,6.24125970643104,8.632024925454242
3638.3123,6.217068255506292,7.29908574730056
3639.1492,6.191343585385252,5.722441058155819
3639.9885,6.162293470097523,7.207134136318684
3640.826,6.129633718591962,7.56097064165555
3641.6653,6.0934636625904695,7.263430210319108
3642.5032,6.054308315178061,7.612376393861883
3643.343,6.012910295198507,7.978818452328699
3644.1812,5.97193419966128,8.103105083605968
3645.0195,5.936007330691371,7.336842310799514
3645.86,5.911308151631805,7.3594881154013505
3646.699,5.903224496299307,7.722098652801619
3647.5398,5.9127102524040485,6.838434246866775
3648.379,5.93428603287335,9.313649688854401
3649.2202,5.957176017889311,7.412092117744723
3650.0596,5.96937691382195,7.053009606160717
3650.8994,5.96352268010109,8.336604868642487
3651.7412,5.940034882239355,8.706428080241492
3652.5813,5.906842335630482,11.02463203041384
3653.4236,5.874344239495894,10.084591584495668
3654.2642,5.849962738932009,8.129061425371527
3655.1067,5.834316708805934,8.62042481661945
3655.9475,5.823284494477285,7.2455514066400974
3656.7886,5.812449689276481,7.985619619248969
3657.6318,5.8007659601921695,8.406091505668101
3658.4734,5.790392541995475,10.581878736245605
3659.317,5.783644791854809,7.05806457832084
3660.1587,5.7810365591988395,10.124027259353554
3661.003,5.7820353042344355,7.034503401572263
3661.845,5.787627077719756,11.09877960458572
3662.6875,5.801034746886976,8.95455576232507
3663.532,5.825182306230622,7.477017498648193
3664.3748,5.858794694920656,6.0370791127799155
3665.2197,5.895477532381063,7.569381059007002
3666.063,5.9256682932105,7.7616032681163105
3666.9084,5.942323854968868,6.829720740615764
3667.752,5.944930658648126,7.686857034760282
3668.5977,5.940099271178341,12.75497646073989
3669.4417,5.936680938800396,7.041381443574403
3670.286,5.939473236600838,7.66840637530449
3671.132,5.946460095586711,9.152568229703014
3671.9768,5.950904262050515,5.937614374778383
3672.8235,5.946022204331814,8.01830747080161
3673.6685,5.928707202899245,8.226100496657883
3674.5156,5.900863090906468,6.755398665264858
3675.3608,5.868889868409479,8.966379039614889
3676.2063,5.840466033089548,5.991727995910429
3677.0542,5.821268418442628,8.517369855516648
3677.9,5.8128165971984505,9.224479759131665
3678.748,5.812352783358978,8.104718129400526
3679.5945,5.814950295087014,7.104435125247827
3680.4429,5.815510331308162,9.195873700377097
3681.2896,5.810456518727478,8.459131146879804
3682.1365,5.799227064517084,7.225959061531721
3682.9856,5.784941421050377,8.646809008430932
3683.8328,5.773032113520522,7.767765261477842
3684.6824,5.767251188041385,10.190310109239732
3685.53,5.76679083092854,6.460632149015823
3686.38,5.767095848490518,8.151504953453273
3687.2278,5.764433507118542,8.638889927880877
3688.0762,5.759592988506489,7.640089560099717
3688.9265,5.75713795946159,8.469888814412624
3689.7751,5.761199706997092,6.805696967681539
3690.626,5.772119915998182,9.672931699093064
3691.475,5.787001713426464,8.980195383682322
3692.3264,5.803277164501881,8.754709415213085
3693.1758,5.820513524746633,8.683285500019
3694.0254,5.8389814075329385,14.081225847508819
3694.8772,5.856382030545415,10.960771475764721
3695.7273,5.86758407518287,7.369781560077867
3696.5793,5.868500312026218,6.995041188502867
3697.43,5.859070010671942,9.470114152399317
3698.2825,5.842413391674795,7.7606427462766066
3699.1333,5.821855908709705,8.243579313151034
3699.9841,5.799200131857459,10.464478214847208
3700.8374,5.775377550938237,8.2417520840879
3701.6887,5.751347350572174,8.339176584715583
3702.5425,5.72771578641369,8.352477520210252
3703.3943,5.705421088595224,8.003539629071703
3704.2483,5.685332151082773,7.853029805026968
3705.1003,5.667853406293695,6.686712051599101
3705.9526,5.6518241662363895,7.950237095360692
3706.8074,5.635627400519383,8.932988456414481
3707.66,5.619165102268824,9.412690326948717
3708.515,5.603714768110489,9.182918351840925
3709.3682,5.590013053972201,9.461502725145921
3710.2234,5.575824282639228,8.774674398037664
3711.0771,5.556886531543632,9.546799019747395
3711.9307,5.529867744524188,8.508905112618823
3712.7866,5.495065894700029,8.436038070812389
3713.6409,5.456989449698424,8.329725559183524
3714.4973,5.4217788417933095,8.696648883487548
3715.3518,5.395503028440966,9.208008565553353
3716.2085,5.3819634488067445,8.13680428061029
3717.0635,5.382197560391318,10.265865585144875
3717.9185,5.393622869254472,12.276894231341123
3718.776,5.410669105428092,7.888033643761872
3719.6313,5.426397308157539,8.717520265721745
3720.489,5.435211976528899,8.830023626470723
3721.345,5.434125182905874,8.416800568359207
3722.2031,5.423090626673549,9.961196371262446
3723.0593,5.404625436846114,10.197687635510666
3723.9158,5.383022231570247,11.202924300099543
3724.7747,5.363163329888763,7.568623680732178
3725.6316,5.3488689526043665,7.393568618938845
3726.4905,5.341067821308778,10.219192993195765
3727.348,5.338035000799097,9.486797875735661
3728.2073,5.336700318597146,9.884151187393101
3729.065,5.334370832806185,12.214476169778102
3729.9229,5.32934655921842,8.045410305630263
3730.783,5.320778361070676,10.259050898461622
3731.6414,5.3087939802298205,10.346704716345684
3732.5017,5.294609546537273,7.760695470224627
3733.3604,5.280332219115481,9.140666532516668
3734.2214,5.2673733747547855,9.533242944138127
3735.0803,5.255451045300944,8.763240261021565
3735.9417,5.242594170389666,8.406370184552738
3736.8013,5.227359922022784,13.45984868651161
3737.661,5.210669611638111,9.842214949769275
3738.5227,5.196013336173424,12.06159113278935
3739.3828,5.187097000302403,8.922002567831973
3740.245,5.184277727206449,10.207449086652307
3741.1055,5.183662437492521,8.669906138035612
3741.9683,5.179702814628007,16.703654777549943
3742.829,5.169429445951596,12.217727008286095
3743.69,5.15425794109885,9.333702433301097
3744.5532,5.13812825539391,9.573093696732158
3745.4148,5.124130803802684,11.848604692856092
3746.2786,5.112173002002913,9.80426554266664
3747.1404,5.100378472459094,10.170528343576006
3748.0044,5.08805189395519,11.565034134726488
3748.8667,5.078024732572693,10.877092782102023
3749.729,5.0751880388888635,11.281877341750189
3750.5938,5.082929637549714,11.634366203879123
3751.4565,5.100093862900082,10.186988059997885
3752.3215,5.121280041575492,8.766049547220263
3753.1848,5.139246733045891,10.772635195243785
3754.0503,5.148348096774218,9.100213136969064
3754.9138,5.1462421647663685,8.04613927185178
3755.7776,5.134289157015838,11.436568001864064
3756.6438,5.116027477134647,8.126087590431794
3757.508,5.095323690699334,11.743280616180323
3758.3745,5.074495420913816,11.86913712574019
3759.239,5.054653068266878,12.591115623470301
3760.106,5.036444918287561,8.992074314238858
3760.971,5.0213295633716495,10.603316391760309
3761.8362,5.01083748452642,10.704420677905873
3762.7036,5.005488693726476,9.474464070504721
3763.5693,5.003939194288753,11.907638586279003
3764.437,5.0032760670925125,12.896139826778967
3765.3032,5.000344291718923,9.44018784463736
3766.1714,4.992923721641598,11.608936712435016
3767.0378,4.980153040335295,11.108147990329988
3767.9043,4.962016731006494,10.595000351061225
3768.7732,4.9389855700397725,10.90922195415343
3769.6401,4.9125386333048775,12.659200381797184
3770.5095,4.885135853847773,9.679585923584298
3771.377,4.860517524872154,12.047707963779766
3772.2466,4.842256016205575,12.517605705309801
3773.1145,4.832825879843753,16.330489947549353
3773.9824,4.8319809598549535,13.931466704465231
3774.8528,4.836462234799263,11.465350428835013
3775.721,4.8409247501742065,10.90427617903032
3776.5918,4.8407301471238355,10.040412587784168
3777.4604,4.835240061304042,11.78058516488381
3778.3315,4.82929078155581,13.581718579295657
3779.201,4.830489886653813,11.684975620168583
3780.0703,4.843151850874403,12.145848588391239
3780.942,4.864394553648425,10.073659326064028
3781.8118,4.886051652464687,10.87557340688319
3782.6838,4.901409056368864,12.315036889316207
3783.554,4.909213301272627,10.908656728100055
3784.4265,4.912557565463334,10.811262068187176
3785.297,4.914228539099377,12.092728412007084
3786.168,4.914193699460376,10.671419075998648
3787.041,4.910612781735759,9.519376002378431
3787.912,4.902467133459734,8.844195461786441
3788.7856,4.890726057113896,11.186034644578715
3789.6572,4.877740498234145,10.342064740352699
3790.531,4.865657546339035,13.163757400690194
3791.403,4.855966257062226,12.993339528302917
3792.2754,4.849120844383062,12.125870609240158
3793.15,4.8441608979707445,12.174472654823731
3794.0225,4.83830940295731,14.079051886700615
3794.8972,4.827885830676042,11.630046754951866
3795.7703,4.811013100916533,11.847381892701208
3796.6455,4.789513771073494,13.395808114038001
3797.519,4.768615644998809,12.730669801425389
3798.3926,4.7535741834772125,10.667022440718625
3799.2686,4.746749364720206,12.900412216381868
3800.1426,4.746774398774289,10.45263138560195
3801.0188,4.750051931999164,12.504137873029144
3801.8933,4.753176910384066,12.107535653842387
3802.77,4.7543596472650025,12.597434839585286
3803.6448,4.753402669436439,9.501547402847695
3804.522,4.751096222648809,10.867001708762743
3805.3972,4.748648455303964,14.188443666900751
3806.2727,4.747189965468893,12.931340236249818
3807.1504,4.747370345578888,11.761016539661224
3808.0261,4.749041296400226,12.584405242823621
3808.9043,4.751226950547457,11.9096797262342
3809.7805,4.752383109515379,13.534711690311788
3810.659,4.750988673915472,10.652930897261742
3811.5356,4.746197130605375,13.942351587794214
3812.4126,4.738265213634827,14.042940069612
3813.2917,4.728490060780217,11.604794887098755
3814.169,4.718764334605642,14.520569376855036
3815.0483,4.710600517606986,11.707578399552556
3815.926,4.704611130199581,14.101674558044778
3816.806,4.700277266399796,13.852493492320978
3817.684,4.696597857761259,13.080049546427459
3818.5623,4.692469166394248,10.13024773464421
3819.4429,4.686439770941536,15.975900422354094
3820.3215,4.676376519701766,12.739616523356927
3821.2024,4.660074966447627,14.268122139657283
3822.0815,4.637308745066409,10.894018822403
3822.963,4.610718996704579,14.741601832337354
3823.8423,4.585192722500708,11.958103100928227
3824.722,4.56478832693418,15.469018194891646
3825.604,4.550565706228623,13.742030583282892
3826.4841,4.540055577658333,14.408661651328442
3827.3665,4.528713745220868,13.458968171163852
3828.2468,4.513224346904433,16.852806012055428
3829.1296,4.4934271422130525,12.743981013717198
3830.0105,4.472001809757898,16.763726820323186
3830.8916,4.451368047420465,12.986115945296483
3831.7751,4.431787183916587,12.174024517200442
3832.6565,4.412072662642673,13.617412530479287
3833.5403,4.3912980998079965,12.926475252363451
3834.4224,4.370456267920336,13.223134795765013
3835.3064,4.351645831965,13.67516225429393
3836.1887,4.337128720106908,14.492716717680771
3837.0713,4.327970841452448,14.9103893327773
3837.956,4.323902837611588,14.930217528808317
3838.839,4.32394674039824,13.673212735561478
3839.7244,4.327552973452476,13.668543497338339
3840.6077,4.335235973083569,12.964226634218916
3841.4932,4.348013718672275,18.030382880577722
3842.377,4.3658174350281955,17.256173042245475
3843.261,4.386698460830627,15.491245948008853
3844.1472,4.407315722348832,12.28869685033115
3845.0315,4.424608644641517,11.94395004498589
3845.9182,4.437623446286504,15.720431315441104
3846.803,4.446911305347716,14.003610048019087
3847.69,4.453277426345441,13.44978612331922
3848.5752,4.456714263252933,17.000590865235356
3849.4604,4.45698502878278,12.062719141578366
3850.3481,4.454354449101573,13.432810637674695
3851.234,4.449898260227432,17.52213604721542
3852.122,4.4452715016020345,13.86116330810882
3853.0083,4.442158465238587,13.039165538664212
3853.8967,4.4408195154007135,14.6258487754931
3854.7832,4.4388151159822415,13.924200748856567
3855.6702,4.431670569682739,12.869067569797345
3856.559,4.4161080060251345,15.344078629600688
3857.4463,4.393502306750964,14.774975292925578
3858.336,4.369726999091747,15.642849904268775
3859.2234,4.35208345809506,14.021181500901415
3860.1135,4.344809216633294,16.195824912663895
3861.0015,4.347695867961028,14.01811210706899
3861.8896,4.357039493386695,13.010895740966479
3862.7803,4.368014785949636,14.34741865696695
3863.6687,4.375959556679772,16.766042827581515
3864.5598,4.376737950769272,12.642034228793836
3865.4487,4.366747239430742,13.580885222263007
3866.34,4.344271961445978,11.633709281720627
3867.2297,4.311753265690884,13.308918719667066
3868.1213,4.27586578685797,14.87589211163966
3869.0112,4.245311320878628,15.226070258263118
3869.9014,4.2260084626247005,14.189344540775425
3870.7937,4.218618911285991,19.517717886213834
3871.684,4.219039767019727,17.582886445723485
3872.577,4.221270861029523,14.79215724082349
3873.4678,4.220404366933381,15.973718117967966
3874.361,4.213935786469254,15.745118502953884
3875.2524,4.20170222512687,13.989983661372285
3876.1438,4.185225338640697,16.3114919338016
3877.0376,4.166929690130168,15.041923996336294
3877.9297,4.149107259862381,17.57736025933981
3878.8237,4.132296184905504,15.474482603377245
3879.716,4.115152396068138,11.91000543339144
3880.6108,4.09512275905553,16.992643424299132
3881.5037,4.070466184362079,21.07054593311796
3882.3965,4.041149791613746,17.31653430069755
3883.2917,4.009024572706483,15.446260793060251
3884.185,3.97722911140014,17.708798831165694
3885.0808,3.9482655091842243,21.11731759820853
3885.9746,3.923448424788968,17.430201853206892
3886.8706,3.902151540605824,15.427159623262472
3887.765,3.883343294509103,15.869332003404985
3888.6592,3.86689479564753,18.947315153593596
3889.556,3.8545376382753602,21.01492107140717
3890.4507,3.8490671017561175,17.512584820677166
3891.348,3.8523453124611278,20.399951205488403
3892.243,3.864101597207874,15.660506996572888
3893.1406,3.8820200011713726,18.98582515340411
3894.0361,3.902543132093604,16.317362631343716
3894.932,3.9225823269052174,14.523250237041742
3895.83,3.940414854969117,17.74691444364498
3896.7263,3.955600485564142,15.10193442129594
3897.625,3.968520468692978,18.215439569242157
3898.5215,3.97965858829032,19.047687946109136
3899.4207,3.9903988258847267,17.26940270622262
3900.3176,4.003196239765325,18.631196990016154
3901.2148,4.020761708036599,17.285946041451442
3902.1145,4.044059322350102,18.546695712631486
3903.0122,4.0712041383037185,19.147157340558948
3903.912,4.0990808000072265,19.912525432897148
3904.8103,4.125031101358561,14.179842440364242
3905.7107,4.148549173803706,14.645809288123086
3906.6094,4.1704467591285965,15.379388723912639
3907.508,4.19191557423438,16.655554028694077
3908.409,4.213347090002248,11.991304572018286
3909.308,4.234100569213665,15.516943433459028
3910.2097,4.25359295123988,14.71699438923521
3911.1091,4.271804144818293,12.996438421171504
3912.011,4.289842309333408,13.259398135290468
3912.9111,4.308647688005445,16.84696402914479
3913.8113,4.327810650624289,11.310127874889583
3914.7136,4.3446580705766396,14.11213732481267
3915.6143,4.354911819605429,14.947373884568925
3916.517,4.355035919447479,14.936672389503299
3917.4182,4.344325767018079,14.72907065175628
3918.3215,4.325820159449423,14.276793488095558
3919.223,4.30533737123377,13.619406650189132
3920.1245,4.288558374528945,16.273446035761037
3921.0286,4.27859946811014,12.999292823089633
3921.9307,4.2750991507458815,14.22791692529858
3922.835,4.275177823029692,13.958434987031925
3923.7373,4.275735082878726,16.413011982635616
3924.642,4.275182399243211,13.499212794468939
3925.5452,4.27373621476703,16.353591267643566
3926.448,4.272322541212728,14.07415741936373
3927.3535,4.271265542345962,14.06208491114815
3928.257,4.269943838714273,14.628071366157673
3929.1628,4.267449182158613,16.436363191444304
3930.0667,4.263524564640965,12.857998851649302
3930.9731,4.25900263429687,17.873607063241558
3931.8774,4.255760627817785,13.99889436628141
3932.782,4.255669866819631,16.186966736316123
3933.6887,4.258885399069167,17.1336425509284
3934.5938,4.262437078686764,14.490911889476306
3935.501,4.261051567309205,12.817737370367919
3936.4062,4.250200572356646,15.412141092354503
3937.3142,4.229128314735017,15.854525393469828
3938.22,4.201788665330179,15.86727372367127
3939.128,4.174317909661569,13.50125860617213
3940.0342,4.1522358989287165,16.25779417888829
