wavl,flux,ivar
3566.9744,2.312318117497059,381.6790557137808
3567.795,2.3045085436353885,407.65052030008843
3568.6177,2.297239645506054,427.9399768120743
3569.4385,2.2912639024926196,435.9303901738641
3570.2617,2.2864510495364243,358.7991610209072
3571.083,2.282523759838854,384.0809258227014
3571.9065,2.2796592588682483,385.9070536092784
3572.7283,2.278580866879982,397.0362814729753
3573.55,2.279770845343851,413.54145537003575
3574.374,2.282761148350609,393.0769036350282
3575.1963,2.286081069843952,325.2999022289333
3576.0208,2.288141799085351,389.92240260123987
3576.8435,2.2882333816279563,407.4234942777723
3577.6682,2.2869854877792277,362.1157033224433
3578.4915,2.2858376323482927,406.9345543677323
3579.3145,2.285928727098524,414.9436991593982
3580.14,2.2871761751518793,369.7472646384668
3580.9636,2.288165161587335,315.1577804465927
3581.7893,2.28708970226836,378.10931427996803
3582.6133,2.283095211066142,444.38950101100465
3583.4395,2.2769434146689407,389.53095665534727
3584.264,2.270563536238844,421.2720173439426
3585.0884,2.2657238100665733,407.1970878736097
3585.915,2.263142562254361,404.64265715759876
3586.74,2.26239584845709,443.1920791045545
3587.5671,2.262353041749622,401.34912872299924
3588.3923,2.261767135908843,397.0899691430295
3589.22,2.2597203323445507,386.4917275060829
3590.0457,2.255995855260261,426.10822002181135
3590.8716,2.2511279457014104,386.5351479132743
3591.6995,2.246066273998736,401.335789117956
3592.526,2.241637885847219,384.53268337658426
3593.3542,2.2381193125239465,435.80050177023026
3594.181,2.235398756704139,406.16660227917765
3595.0098,2.2331951431891937,398.4384323905845
3595.8367,2.2311902204635863,419.767088402258
3596.6638,2.2288665869342963,460.871828533583
3597.4934,2.2255941660359,376.84696292932273
3598.3208,2.2211036202096914,392.4029756988691
3599.1506,2.2158074912122623,439.42376310327967
3599.9788,2.2107281801020817,400.7062094990089
3600.8088,2.2067937871556174,372.9361904173723
3601.6372,2.204453639624422,436.6235823445577
3602.4678,2.203615014878852,418.50793835283366
3603.2964,2.2039757486250666,438.6846264596464
3604.1252,2.205261610972903,429.8298572921722
3604.9565,2.2073264376751824,471.1163164055016
3605.786,2.2100245121685584,365.23919584941336
3606.6172,2.2130319973657526,422.74111070196886
3607.447,2.2156270652436176,402.01762406347245
3608.2788,2.2168094650306456,390.39207699025053
3609.109,2.2156620253716737,447.5702176444887
3609.9392,2.2118846309504456,407.63655394706547
3610.7717,2.2060251336817456,427.47147831513246
3611.6023,2.199354971834938,425.92703105147797
3612.435,2.1932499232374267,400.18907550562835
3613.266,2.188805298840969,408.04839658473423
3614.0994,2.1864772650244415,411.98422625590086
3614.9307,2.186168934084699,428.47140975999383
3615.7625,2.1873716515589425,422.5389541591478
3616.5962,2.18947390807776,400.12469493083944
3617.4282,2.1919549083110637,404.5707376681056
3618.2625,2.1944334073004392,413.8124521625194
3619.0947,2.196479254159141,434.412044104577
3619.9292,2.197641221771568,437.2016449597363
3620.762,2.1976466428558545,412.99143418579723
3621.595,2.1966031652933906,451.2916875066261
3622.4302,2.194784712942023,446.11375783030644
3623.2634,2.192307183794057,451.2922539936971
3624.0989,2.1891133096858018,454.17086087317387
3624.9326,2.185482808851319,406.2275829247659
3625.7686,2.1823196350120444,460.6994844266661
3626.6028,2.1808962268501495,414.2131587474923
3627.437,2.1819616938581445,437.2128554169831
3628.2734,2.185164074334415,434.5169006480093
3629.1082,2.1891849674354376,365.6841345478352
3629.945,2.1925904489193324,418.8087982047714
3630.78,2.194465401084006,411.7044834746271
3631.6174,2.1946172484628974,373.61192346373076
3632.453,2.1933350674116445,406.9927214274983
3633.2883,2.191208506554261,440.23731583881556
3634.1262,2.189009524339036,404.7201180123784
3634.9622,2.1875635683056958,433.0248808396825
3635.8005,2.1874305098151314,478.84314014729966
3636.637,2.1886009532202375,403.96619617902724
3637.4756,2.1903238915083696,436.13166232743464
3638.3123,2.1913260898475655,405.067769807997
3639.1492,2.1905109381030434,386.39100042361764
3639.9885,2.1876587788713255,403.35409009446647
3640.826,2.183663169721999,424.7379274915618
3641.6653,2.179931859904404,478.2175435417392
3642.5032,2.177618015939489,467.7668966060502
3643.343,2.177110077339394,426.4359680286722
3644.1812,2.1781695873065487,405.1663469258061
3645.0195,2.1802886482745456,468.16978254002527
3645.86,2.183009673781283,410.33785031252506
3646.699,2.1860223839897457,388.3721448708514
3647.5398,2.18916613901697,411.23827848013843
3648.379,2.1921901841266016,434.23613566501865
3649.2202,2.194584598484976,433.40299200071934
3650.0596,2.1955214551775954,393.571333066561
3650.8994,2.1942902547952983,372.58520025930426
3651.7412,2.190889629023872,416.3702466054258
3652.5813,2.1864253370191133,401.4494093273484
3653.4236,2.1827182660520985,450.80163747739215
3654.2642,2.1814741672976674,431.81463555297603
3655.1067,2.1833448531112296,419.5721471794809
3655.9475,2.1876048073626646,410.86713244453824
3656.7886,2.192548640660621,408.9936826544055
3657.6318,2.1963645371537948,418.9609579453823
3658.4734,2.197963478644186,399.26137052705565
3659.317,2.1973575623464643,483.9782104205255
3660.1587,2.1953337679948235,470.6855109058204
3661.003,2.1929195809149875,384.27996443248253
3661.845,2.1910597265597036,386.77737782273107
3662.6875,2.1904280212404896,399.1540098338882
3663.532,2.1913356161468966,445.56666943823126
3664.3748,2.193563227830256,406.3059853188424
3665.2197,2.196401054451863,388.0427848526546
3666.063,2.198948651155702,408.4748097714279
3666.9084,2.200653925971294,398.528984149263
3667.752,2.201554038850536,387.72616503080854
3668.5977,2.2021319583828207,409.3382020285259
3669.4417,2.202806753686758,467.2298066762024
3670.286,2.2035798206534114,401.1872642258928
3671.132,2.204099829330392,433.7978628668754
3671.9768,2.204042835822361,393.28674037877147
3672.8235,2.203389945342056,404.9121483455613
3673.6685,2.2023423724613402,391.698599554886
3674.5156,2.201043123975169,413.4201095847834
3675.3608,2.199466858239625,394.4447428402592
3676.2063,2.197474985974092,417.01328683417023
3677.0542,2.194920522835328,412.4507717755658
3677.9,2.1916934002738846,431.7497717954205
3678.748,2.1876970058427423,397.9315898226095
3679.5945,2.183050122243769,432.2844176091422
3680.4429,2.178172023695091,414.15012773181456
3681.2896,2.1738608495335674,416.1918949234725
3682.1365,2.170950732118928,459.1167626605644
3682.9856,2.169935831335536,432.72707162266374
3683.8328,2.1707194268449435,418.21750519751566
3684.6824,2.1727524975316213,440.05122544757677
3685.53,2.1753563316876683,392.7241866910674
3686.38,2.1779060906558643,392.0165721927515
3687.2278,2.179703584980867,425.6214971850593
3688.0762,2.180009030817352,468.05008401781333
3688.9265,2.1782823937818687,420.5681460492528
3689.7751,2.174629287150956,412.97637455849593
3690.626,2.169965913967123,383.7851614051623
3691.475,2.1657988356562523,414.4387510239599
3692.3264,2.1634686404892465,460.1751116762117
3693.1758,2.1635464221283374,411.4001168500631
3694.0254,2.165639460846251,438.20388221279853
3694.8772,2.1688797786276632,433.43671744362086
3695.7273,2.1724571894693208,429.46928925953347
3696.5793,2.1758168976411225,445.1290317649547
3697.43,2.178302759046836,407.3070362684609
3698.2825,2.1789907028419626,403.3883539378045
3699.1333,2.1769495755185093,432.46305901744
3699.9841,2.1718641994900274,376.7045274623497
3700.8374,2.164332676608939,436.8349417908298
3701.6887,2.1556815153815423,445.3600405901577
3702.5425,2.1471905866147805,463.7249154230273
3703.3943,2.139823519125855,432.2594156676431
3704.2483,2.134086442162783,437.350323157747
3705.1003,2.130360970809847,491.1201643235798
3705.9526,2.1287750601208875,407.5067846097497
3706.8074,2.1290453809805614,469.5601179762392
3707.66,2.1303690446547963,472.33282662539216
3708.515,2.1316892265949563,464.2552187499425
3709.3682,2.132111931477666,432.00754866108673
3710.2234,2.1312431175001234,440.9944679023108
3711.0771,2.1292604647406135,398.69354220185306
3711.9307,2.1267634070455124,466.9055833556769
3712.7866,2.124433627838489,438.7895521934134
3713.6409,2.122641555476058,459.821215400445
3714.4973,2.1212014971085056,392.63693784909003
3715.3518,2.1196766999905736,454.6199530482062
3716.2085,2.117895926155197,394.78167772106144
3717.0635,2.116269339547987,465.15599015590357
3717.9185,2.115500056099395,467.50694304403623
3718.776,2.116069611970325,475.1106251202317
3719.6313,2.117885398683622,467.5046033510196
3720.489,2.1203243531192904,438.70018140271435
3721.345,2.122449714170748,432.49593883762793
3722.2031,2.1233238047240657,456.6619520124631
3723.0593,2.122253590531978,457.20407173637
3723.9158,2.119059110918156,463.88285444047955
3724.7747,2.114144232654568,441.6890799124267
3725.6316,2.108391453049739,489.03732948312563
3726.4905,2.1027138909685834,441.9200669969585
3727.348,2.097808581071118,497.2810239149907
3728.2073,2.0939124578043264,485.4298039654018
3729.065,2.090928498473208,440.9705534765968
3729.9229,2.0885632623111956,413.02613310105744
3730.783,2.0865971581523426,472.88539267127305
3731.6414,2.085017083203743,474.39867009749247
3732.5017,2.0839079537525373,470.4875811402418
3733.3604,2.083282391768195,427.04955838762584
3734.2214,2.082940951726701,486.656077007341
3735.0803,2.0825215902422074,478.3480376830159
3735.9417,2.0816008383854148,481.44612997327556
3736.8013,2.079823470321463,442.3777871405923
3737.661,2.0770270170752676,481.36607351302666
3738.5227,2.0733518464030225,495.15936858863
3739.3828,2.069237329891982,458.6972284020385
3740.245,2.065142166028879,428.20670463378764
3741.1055,2.06140225177267,445.17479750333933
3741.9683,2.0581091416081043,489.2370748695032
3742.829,2.0552543744952083,494.07281804626274
3743.69,2.052749708641025,468.04377434798766
3744.5532,2.050548718229507,481.18246305306786
3745.4148,2.0487718805970347,466.6539737017056
3746.2786,2.0476839706890404,543.8228512047468
3747.1404,2.047573246451178,473.1377896604084
3748.0044,2.04856318869195,529.9830325010508
3748.8667,2.0505740357426747,465.833414055987
3749.729,2.053332316724886,463.0647547158184
3750.5938,2.056277216493203,496.27467260693885
3751.4565,2.058501179772269,414.5684622086202
3752.3215,2.0591565258362174,436.2228945868622
3753.1848,2.0580632459129773,502.78305557572855
3754.0503,2.0560218854140966,440.97458418543886
3754.9138,2.05431951507852,548.9265870888901
3755.7776,2.0536982945961704,452.5122670132022
3756.6438,2.053741873168654,517.4287835183706
3757.508,2.0531940514240588,508.52338189056763
3758.3745,2.051035237106084,444.71156250326413
3759.239,2.047434680772655,492.8471408219931
3760.106,2.0436525048213623,526.7456138185951
3760.971,2.0410871743394563,504.196454544875
3761.8362,2.0401918127930836,473.8630564820347
3762.7036,2.0403907514494977,446.23227252504745
3763.5693,2.040755901327423,471.80992924760767
3764.437,2.040690354172385,506.91137740209524
3765.3032,2.040024923010204,475.32742278248054
3766.1714,2.0387504912046017,486.85575914365324
3767.0378,2.0369136088717568,476.8954097647137
3767.9043,2.0347277697579766,476.91516530663984
3768.7732,2.0326207958831946,443.7009179401617
3769.6401,2.031034296880883,481.4088853973413
3770.5095,2.0301470838075963,489.24279407776214
3771.377,2.029959028790875,533.1579894437469
3772.2466,2.03051086667647,522.3930521975756
3773.1145,2.0318703768631052,497.34395253345866
3773.9824,2.0337584515783607,555.576094267768
3774.8528,2.0353451516627374,471.4414753694254
3775.721,2.035731107213835,456.5206407999034
3776.5918,2.034870799470308,465.7673194577094
3777.4604,2.033880740581835,488.105570472213
3778.3315,2.034244405372844,515.844983017816
3779.201,2.036578526874357,490.12947943589813
3780.0703,2.0401022152463013,477.98615669817553
3780.942,2.043259680469313,436.4259622601581
3781.8118,2.0448150003174415,502.1089731399746
3782.6838,2.0446067436909208,465.88032872886555
3783.554,2.0434105551974016,477.6571861748278
3784.4265,2.042260135021054,473.5500133489014
3785.297,2.041752470337053,508.11836428214207
3786.168,2.041739386687702,456.6035927211042
3787.041,2.041595141801912,417.00292503703605
3787.912,2.0407503280641848,472.4288109850675
3788.7856,2.039039370982806,492.27839582929977
3789.6572,2.0366547182353907,463.9174474012155
3790.531,2.0338192377869473,450.3229508262042
3791.403,2.0306197659704184,477.65264119182785
3792.2754,2.026942461761647,525.158836083032
3793.15,2.02257895818193,442.73535535839176
3794.0225,2.0174188527500734,508.0455073581876
3794.8972,2.011547752792651,526.105810183134
3795.7703,2.005443718740151,502.0444645083642
3796.6455,1.9998486576769263,497.179779177117
3797.519,1.9957085003410082,524.7513293458551
3798.3926,1.9937829457632428,499.2312601165947
3799.2686,1.9943220697882829,497.9896169716314
3800.1426,1.9968046300157007,522.6908820543192
3801.0188,2.0000834970918495,518.5479447847915
3801.8933,2.0028280929919093,488.1168656879031
3802.77,2.004103688958833,504.8717769844791
3803.6448,2.0036304483661733,515.7606321792382
3804.522,2.0018061823033286,488.80136193070814
3805.3972,1.9995305642247907,509.78140701466816
3806.2727,1.997859176703702,524.7922477852107
3807.1504,1.997567278699452,563.0906757353573
3808.0261,1.9987669871293572,540.2371630039496
3808.9043,2.000945053499562,467.7684235350529
3809.7805,2.003370581251263,509.93686793693695
3810.659,2.0054948772883923,503.39250722262784
3811.5356,2.0069138159665,490.0230851151157
3812.4126,2.007288845877156,464.4687999979807
3813.2917,2.006449701790991,465.84903209381366
3814.169,2.004660136523212,503.1784121965891
3815.0483,2.0025607888403734,485.6975395708487
3815.926,2.0007984323720307,498.0190627343467
3816.806,1.999633738894232,470.225510653398
3817.684,1.9989620100927548,512.8101011146837
3818.5623,1.9985118412693892,471.07167667667744
3819.4429,1.9979911299055868,482.2850464883157
3820.3215,1.997047967203142,453.4593449794267
3821.2024,1.995198073474596,497.9486883833892
3822.0815,1.9919521621333491,496.2085162393667
3822.963,1.9870653240177536,518.8680783358144
3823.8423,1.980864008517776,463.8697445226039
3824.722,1.974122867209074,507.29445923145886
3825.604,1.967637010890042,528.0576369344748
3826.4841,1.9617025330526336,534.9329207480798
3827.3665,1.9558140471080345,555.6748337642337
3828.2468,1.949191964590304,506.10705940543227
3829.1296,1.941342126940649,547.531392406934
3830.0105,1.932562505497232,594.6543378391399
3830.8916,1.9235894546450485,497.0781170619696
3831.7751,1.9150725439756517,582.9508518356863
3832.6565,1.9071926071334322,582.3374811767089
3833.5403,1.8995291244401253,555.8232908355143
3834.4224,1.8917004680313088,550.7136660133965
3835.3064,1.8838092671448465,599.8741734970148
3836.1887,1.8768314320654287,576.4414090777314
3837.0713,1.8721730213903571,591.1316514928507
3837.956,1.8710573873352743,602.1028037394211
3838.839,1.8739874102014205,574.4637907525188
3839.7244,1.8806939757905339,636.4603938780833
3840.6077,1.8903202697562909,566.2712746030535
3841.4932,1.9017377171567271,538.9088352144167
3842.377,1.9135375174802505,623.7423559012387
3843.261,1.924516509094474,554.9514488761967
3844.1472,1.9340204798555336,546.0290942294648
3845.0315,1.9420750482926006,575.9893072083861
3845.9182,1.9493107463343433,511.9235357005457
3846.803,1.9563850817010642,501.71578875602603
3847.69,1.9638344994472974,501.847866390789
3848.5752,1.9718232263131306,540.1704110798204
3849.4604,1.9802184457159246,545.0281146968362
3850.3481,1.988556761595234,520.3016915621822
3851.234,1.9961081844700779,484.858257459125
3852.122,2.002303266959854,472.90232907733485
3853.0083,2.0068263471471464,486.0358066559421
3853.8967,2.009720311015963,512.6556361428976
3854.7832,2.0111419409998565,484.5030724633079
3855.6702,2.01139770730189,505.4798982553187
3856.559,2.011031540481108,473.9338831104854
3857.4463,2.010783928754363,496.66993866826095
3858.336,2.011211258910103,486.0628969903864
3859.2234,2.0123138245701973,521.3667157430932
3860.1135,2.013588639958095,499.061914638027
3861.0015,2.0144237055965655,489.40604850521385
3861.8896,2.0144619808778335,469.5651964415014
3862.7803,2.013554251110895,527.7851431148307
3863.6687,2.011534649424686,497.9296006025088
3864.5598,2.00808458994882,500.61804912696135
3865.4487,2.0029163282634213,494.7594198825066
3866.34,1.995924676539578,487.4140928115275
3867.2297,1.9874431594558575,522.8913178792405
3868.1213,1.9781406851571006,476.1879191692777
3869.0112,1.9690030636207716,497.19514780112735
3869.9014,1.9608448575318762,479.23751748013757
3870.7937,1.9539299196935216,516.1952169095546
3871.684,1.9477690876549008,580.871646917996
3872.577,1.9412226748250747,540.3122558915554
3873.4678,1.933218130372908,548.2529662362997
3874.361,1.9231891885345949,502.510527407689
3875.2524,1.9114592228855887,534.8635625636929
3876.1438,1.8988625170549092,580.7071361617485
3877.0376,1.8862842687352273,558.8701505377031
3877.9297,1.8742465991781945,655.4637568145389
3878.8237,1.862541509729961,521.195029322017
3879.716,1.8507868503898868,540.9133910905679
3880.6108,1.8387453331389723,606.7864367738209
3881.5037,1.8266846948667872,555.921018270446
3882.3965,1.81484020496372,544.9773117985035
3883.2917,1.8031101473163358,604.7139073855243
3884.185,1.7911177772676672,668.9189150548381
3885.0808,1.778308854811805,710.1706692985559
3885.9746,1.7645966080844884,624.0133579778973
3886.8706,1.7504253376015089,650.833642121492
3887.765,1.7371195723390929,656.4061014555996
3888.6592,1.7264664764809998,687.2088463527757
3889.556,1.7203272610270162,690.4355779875308
3890.4507,1.720037732263385,709.4802460985429
3891.348,1.7258554774539459,672.7841421324267
3892.243,1.7368843894236314,624.9354455695052
3893.1406,1.7515803215972787,662.7101457615175
3894.0361,1.7681834060497628,611.5063624193292
3894.932,1.785514907116673,693.0229573825118
3895.83,1.8030114145285168,588.7465845284073
3896.7263,1.8203692856448606,591.6644743199823
3897.625,1.8375545197370775,608.5842743551734
3898.5215,1.8543496902388394,635.8070468407773
3899.4207,1.870747082418043,559.1114323216441
3900.3176,1.8866152605897157,617.2473844057332
3901.2148,1.9020028266298805,521.1078053032178
3902.1145,1.9170329078777035,568.9955367809754
3903.0122,1.9318297555564568,554.6789473063193
3903.912,1.9466151600826263,556.077074349999
3904.8103,1.9611706510074658,533.7940435870387
3905.7107,1.9750926822931234,503.5892141205979
3906.6094,1.9879466970808066,514.9420076437196
3907.508,1.9998884886325345,495.79908804860827
3908.409,2.011492586378654,515.8839452552144
3909.308,2.023157494162984,487.06367574659464
3910.2097,2.0349041122850933,487.37442751261705
3911.1091,2.0462600946281246,448.21525218101135
3912.011,2.0568380852527812,521.0311382113233
3912.9111,2.066311774280429,429.8515435032886
3913.8113,2.0746154796260563,452.98647954585
3914.7136,2.081862019522327,472.7982152954908
3915.6143,2.0882359603073617,493.9768981571467
3916.517,2.0939328368017467,443.47269479504143
3917.4182,2.098956685985494,438.5647667997008
3918.3215,2.103379793635141,478.01033522130075
3919.223,2.107468200273632,458.7153110062537
3920.1245,2.1116657169245694,436.228389792198
3921.0286,2.116172762336336,414.2637397818528
3921.9307,2.1206411151760225,482.38599009805904
3922.835,2.1244492071707857,447.5688286816773
3923.7373,2.1271667262772156,453.52079162893256
3924.642,2.1289844580406942,434.9799467059791
3925.5452,2.1304651093540157,462.60914854349437
3926.448,2.131990879537478,419.55299315282974
3927.3535,2.133367079654611,444.08893746910553
3928.257,2.1340062127875354,415.35644744931227
3929.1628,2.1334767796632272,468.4665159684499
3930.0667,2.1317799873259795,411.54723399977524
3930.9731,2.1291511073415874,454.4245736637588
3931.8774,2.1257360740816296,451.0486156349593
3932.782,2.1214258039636933,434.29639101078743
3933.6887,2.116057063146058,419.83512377147497
3934.5938,2.1097058455881292,440.9636491856766
3935.501,2.1026451010818774,461.9915903153284
3936.4062,2.095245686044219,448.2663727995409
3937.3142,2.087593228014442,454.5369227367285
