wavl,flux,ivar
3566.9744,2.1893244771516325,243.56259831031073
3567.795,2.19073335803844,217.05499798934196
3568.6177,2.1910063589500304,208.7717668582207
3569.4385,2.189038711338276,237.385862895311
3570.2617,2.184376563408154,233.40663737158317
3571.083,2.1774443233851914,197.98192744443142
3571.9065,2.169126250737092,243.45543766471107
3572.7283,2.1605848200323257,222.37720146741452
3573.55,2.153050464010966,232.28479535157797
3574.374,2.1476942792944556,259.5755023769588
3575.1963,2.145135877211641,241.7375255574996
3576.0208,2.144913556975438,243.92442189973633
3576.8435,2.1457599831677143,246.60406502017895
3577.6682,2.1464001744546626,233.45468625786697
3578.4915,2.146241975999667,207.64007800427143
3579.3145,2.1454389907339495,243.88516117147125
3580.14,2.1444591055643363,270.91310167110163
3580.9636,2.1436784291185624,240.00553149518726
3581.7893,2.143187896354934,228.4037026977649
3582.6133,2.1428209060203414,230.9392215351443
3583.4395,2.1422700082246657,252.55386225746474
3584.264,2.141327083834369,254.09230122093797
3585.0884,2.1400808403254232,257.3694985749623
3585.915,2.138849963306231,277.32801587675533
3586.74,2.1378511629821966,240.78725491699896
3587.5671,2.1369593780136986,216.05286476117442
3588.3923,2.1359458278666157,232.06717959741025
3589.22,2.134824471290599,207.45385045562637
3590.0457,2.1338333401128,237.7101237986167
3590.8716,2.132941714550065,240.83181840059314
3591.6995,2.1315345128907928,255.84517905140243
3592.526,2.128686884642147,256.6104038757348
3593.3542,2.123775174028229,244.41717779497628
3594.181,2.1169568670511767,245.9221865831953
3595.0098,2.1089531290518297,221.12428682371797
3595.8367,2.1006541028917147,243.51305433690587
3596.6638,2.0925660699240707,280.0120185177839
3597.4934,2.08495240861792,260.994110971328
3598.3208,2.078360828538148,228.77368010002849
3599.1506,2.0737112423685184,253.66489903508955
3599.9788,2.0719280425242372,303.80594985731386
3600.8088,2.0729730494491534,252.93701134640878
3601.6372,2.0755911076049003,229.75663838753613
3602.4678,2.0780875622329322,239.04645428256046
3603.2964,2.0795319267068697,246.13618935109375
3604.1252,2.080391459115941,237.87618320468547
3604.9565,2.0819047601246154,293.29622979339797
3605.786,2.084802017746313,212.1029137815088
3606.6172,2.088532825946259,221.8060493684845
3607.447,2.091547250762344,254.28698014179918
3608.2788,2.0923765441260844,237.61320176387147
3609.109,2.0903955023831915,237.67020365013306
3609.9392,2.0859327489565804,246.71235465635803
3610.7717,2.0798729106887093,238.71069844743448
3611.6023,2.0733037006969375,246.95824965706336
3612.435,2.067078575030442,264.4416028492326
3613.266,2.0616812252516663,279.8682254667588
3614.0994,2.0570173417040456,239.5463551395185
3614.9307,2.052720148874244,275.0798395870048
3615.7625,2.048467989041988,248.04615859817588
3616.5962,2.0442954531482793,249.84252065495056
3617.4282,2.0405230277709463,247.40906029326845
3618.2625,2.037401718822491,263.40735315176454
3619.0947,2.0350253964380527,248.54570742376353
3619.9292,2.0333801414870476,241.54569074842647
3620.762,2.032531567005279,238.31639079633368
3621.595,2.0325205842421425,255.85453689911645
3622.4302,2.0331984609311045,234.03447103458046
3623.2634,2.0341922252588884,251.6983277562794
3624.0989,2.03509323767302,248.49934037096855
3624.9326,2.0355803239150068,292.577329282822
3625.7686,2.035404019945748,228.81636946108958
3626.6028,2.0343160037269783,294.7752987133027
3627.437,2.032137357780693,233.26351737032095
3628.2734,2.028902161980749,282.014409924486
3629.1082,2.0249379639475285,300.155196501966
3629.945,2.020653748319629,237.20292835291718
3630.78,2.0163836151081416,251.16358134265673
3631.6174,2.012201418500098,262.5497337229502
3632.453,2.008072972892431,293.5987148439056
3633.2883,2.0038969375010365,269.77075763877997
3634.1262,1.9995898651055861,295.18404896814775
3634.9622,1.9951205617263723,286.515891981186
3635.8005,1.990431073399797,264.47681155971344
3636.637,1.9855657290314839,278.7429005905166
3637.4756,1.980615318957717,263.74117679563983
3638.3123,1.9758507074423428,260.8221506035169
3639.1492,1.9716859599601235,298.01032289814555
3639.9885,1.9687355076735804,294.7224170615125
3640.826,1.9676578167491237,303.5045819526447
3641.6653,1.9686921403697457,284.2398516910849
3642.5032,1.9712474759845036,303.0784704661228
3643.343,1.9739079498565644,289.4447174881741
3644.1812,1.9750476231216754,257.0163628746942
3645.0195,1.9737772285997022,282.5690069475034
3645.86,1.9703702421234093,275.41735877460616
3646.699,1.96597714111352,292.16667409319797
3647.5398,1.9617728883303958,290.50768617601204
3648.379,1.9583915145984438,293.10853463311526
3649.2202,1.955754568046965,260.4546531708218
3650.0596,1.9534890282705244,293.0482148199214
3650.8994,1.9513555450936984,285.2255815673573
3651.7412,1.949477560112524,279.9950997645243
3652.5813,1.948083742222732,275.1605252700274
3653.4236,1.947014815779867,288.04522736680883
3654.2642,1.9456665974525593,264.50737318301316
3655.1067,1.9435357488086644,287.66217487487376
3655.9475,1.9409647699077603,317.25831403399087
3656.7886,1.9391384570761572,258.6434384083014
3657.6318,1.9392661322589644,302.05548120484633
3658.4734,1.9416148598695684,268.032106344676
3659.317,1.9453172292363945,274.5555788054102
3660.1587,1.9489703168764698,269.5737248903837
3661.003,1.9514686724645829,241.42629865784747
3661.845,1.9522613783755942,335.95056736552414
3662.6875,1.951255560123108,259.3247940460742
3663.532,1.9485670303180893,275.92532418010575
3664.3748,1.9445231992295406,284.45082327883034
3665.2197,1.9396831455965557,276.70032107931013
3666.063,1.9349069669853791,277.2341523111047
3666.9084,1.931098817709252,292.3033694646735
3667.752,1.9289434252142241,288.1623063165615
3668.5977,1.9285271196501186,305.1273747558305
3669.4417,1.929387683632683,268.16464962845055
3670.286,1.9308640495515599,289.7176970220664
3671.132,1.932495366739701,292.3669691292865
3671.9768,1.934079601675372,296.0285163264302
3672.8235,1.9354867229268928,274.02597373311283
3673.6685,1.9364434017145162,297.50667120615304
3674.5156,1.9365899754501474,259.40129453505426
3675.3608,1.9356620929922754,275.9050082550815
3676.2063,1.9336492142078243,296.7202388785701
3677.0542,1.9307813639406262,258.8849089366621
3677.9,1.9274504212636738,279.2727245668987
3678.748,1.9240195501537385,271.4378075053742
3679.5945,1.9207885464446228,288.17103785294194
3680.4429,1.917872182529657,272.22270058170506
3681.2896,1.9152564621516015,304.8364558603004
3682.1365,1.9128295011771348,279.9180123080378
3682.9856,1.9105273424515412,330.00357453504114
3683.8328,1.9084062627230056,280.274242569313
3684.6824,1.9064994338068095,290.9781026187881
3685.53,1.9047082452958914,274.24867059756525
3686.38,1.9028398667453361,268.53475148235896
3687.2278,1.9009776825361853,275.18228936376966
3688.0762,1.899628265688038,311.3035844225441
3688.9265,1.8994339099053812,304.13268500591744
3689.7751,1.9006271164105115,279.497389768683
3690.626,1.9028114032181256,352.8128832980903
3691.475,1.9051528979765393,302.6489994820158
3692.3264,1.9067359160966906,279.4909505672996
3693.1758,1.9067514242157348,279.37558928634996
3694.0254,1.904726862384384,323.03786240763014
3694.8772,1.9007472437735937,287.2798390127097
3695.7273,1.8956530698762188,283.4791833657856
3696.5793,1.8907790639655842,304.74431772446826
3697.43,1.8874464275443783,295.22757894849497
3698.2825,1.8862400422932448,300.6211447933422
3699.1333,1.886770443821646,291.6371324813009
3699.9841,1.8879235072913365,291.9252926654424
3700.8374,1.8884983547664878,285.52239745561315
3701.6887,1.8877568551711044,291.5336955545169
3702.5425,1.8856183789280805,282.91884939758194
3703.3943,1.8824575499709093,323.87401374946444
3704.2483,1.8786540314769609,328.4224288884699
3705.1003,1.8743671105657114,343.92954939685825
3705.9526,1.8695488123261215,312.4121210359322
3706.8074,1.8643308309383169,334.6110445583968
3707.66,1.859337644931321,335.951996233004
3708.515,1.8553939113206408,318.18710124368266
3709.3682,1.8530628273350804,331.28065333969
3710.2234,1.852156621981907,326.881138249374
3711.0771,1.8518679002624565,293.13512568715817
3711.9307,1.851210814730172,323.00953015701515
3712.7866,1.8495047984968107,330.43196467576854
3713.6409,1.8466737390824315,362.44185687757164
3714.4973,1.8432511521342179,317.117222160379
3715.3518,1.840194874317625,340.7961997255183
3716.2085,1.838353220661712,330.7836794989943
3717.0635,1.8380068996637824,297.9096104154447
3717.9185,1.8386445525238984,312.98856282395184
3718.776,1.8392854579819606,328.30550255899755
3719.6313,1.8390417864810147,362.52608951966266
3720.489,1.8375667726091176,329.44164544844097
3721.345,1.8351033973624673,301.146791710026
3722.2031,1.8321655790722098,330.1423885574965
3723.0593,1.829226393212963,334.3076893257317
3723.9158,1.8265010158495285,303.08495725771496
3724.7747,1.824003780226928,323.4652082427554
3725.6316,1.8216733824938676,323.26127496108074
3726.4905,1.819420757206075,328.2221789836644
3727.348,1.8172472546049216,343.795528843623
3728.2073,1.8152550511742571,346.53437440335193
3729.065,1.8136408111931261,329.5675748499428
3729.9229,1.812522681369549,333.8529813536287
3730.783,1.811805278147879,367.61156862208253
3731.6414,1.8111562133740209,335.93586087447125
3732.5017,1.810159815227929,305.21640720561135
3733.3604,1.8085806133581401,303.7259588882027
3734.2214,1.8064565386857392,323.8657098027581
3735.0803,1.8040042327511234,366.407711720494
3735.9417,1.8013516379755492,343.7927514478591
3736.8013,1.7985084082101075,324.00794981009824
3737.661,1.795462523766023,307.6643906349685
3738.5227,1.7923948226710713,333.17406666297103
3739.3828,1.789740331860029,328.48319890356464
3740.245,1.7879255639331249,347.1219149613643
3741.1055,1.7870788277588765,333.26722830264964
3741.9683,1.7868220263597026,338.1365371024196
3742.829,1.786440818356711,306.6510864247322
3743.69,1.7852493270996013,370.06757056993854
3744.5532,1.7829311963769303,380.5719165459036
3745.4148,1.7797427649060271,331.5675446757805
3746.2786,1.776466246228652,359.84829766443477
3747.1404,1.7742476892723515,343.4916880257837
3748.0044,1.7741137719721816,354.5141875318125
3748.8667,1.7764935144098721,342.8415224338359
3749.729,1.7809076939523982,324.5782894858173
3750.5938,1.7861188385516718,366.4098922381691
3751.4565,1.7905881703959627,366.6480681122687
3752.3215,1.793237498756721,326.42633386677414
3753.1848,1.793861555416469,303.1737467518203
3754.0503,1.7931826822375208,353.088242962188
3754.9138,1.7923070516467736,371.7725131216864
3755.7776,1.791958312780036,336.3018564488399
3756.6438,1.791968458624434,316.37137512692834
3757.508,1.7913675385489956,299.0570274080748
3758.3745,1.7890713081813767,339.3404533847562
3759.239,1.7847457570552387,322.3053036065611
3760.106,1.7791107219774582,337.4919536435281
3760.971,1.7735873937271442,332.9101503843571
3761.8362,1.7693401894999683,404.4677557433915
3762.7036,1.766734361002083,336.66469612538543
3763.5693,1.7653793551585413,326.1034488844898
3764.437,1.764520530532565,342.9664171957868
3765.3032,1.7634466258759274,328.14991590952496
3766.1714,1.7616567107437673,334.38088183541805
3767.0378,1.7589989926149592,358.8198398281653
3767.9043,1.7557115177279419,336.2856828454444
3768.7732,1.7523358891275989,367.4602521690427
3769.6401,1.749508289796602,342.4584288264509
3770.5095,1.7476422101125129,365.4480476803561
3771.377,1.746826672426755,349.91850593361045
3772.2466,1.7467759807844112,353.27771074878416
3773.1145,1.7469637232135944,343.1992653260053
3773.9824,1.7468281673152686,356.320461685554
3774.8528,1.746024964558702,348.9049279990843
3775.721,1.7446226691433224,335.53345453623615
3776.5918,1.7430568169421343,337.00822345303766
3777.4604,1.7418846550406346,337.9809641374569
3778.3315,1.7414340311556382,342.31669592333503
3779.201,1.7417001596318664,354.24802913109704
3780.0703,1.7424497631138143,351.85630200388823
3780.942,1.7434218427138695,388.1541425516589
3781.8118,1.7444139502827596,348.7890893688461
3782.6838,1.7452674840667863,359.9465637819146
3783.554,1.7457689234106226,375.5520603333936
3784.4265,1.7456378143015432,334.78637511003114
3785.297,1.7446001421996327,335.8296409421611
3786.168,1.7425063032970847,372.355891020746
3787.041,1.73937365708574,320.8998159657241
3787.912,1.7353939969577181,333.3950794403675
3788.7856,1.7308391421583174,335.97086007258713
3789.6572,1.7261310569898038,365.98926943201405
3790.531,1.7217485686261857,415.40192624018187
3791.403,1.7182311706864521,374.15669183851486
3792.2754,1.715926328111625,397.0362601003828
3793.15,1.7148536759867061,366.68342694614097
3794.0225,1.714710513747578,320.84837968028506
3794.8972,1.715071315198991,375.4387855514044
3795.7703,1.7155858971321083,366.04223511922595
3796.6455,1.7159625398794647,361.50736435214435
3797.519,1.7158566974734644,349.3487220951297
3798.3926,1.714940434633551,323.5577529985343
3799.2686,1.7131024765831884,379.42680218527823
3800.1426,1.71055563060254,383.75394920832383
3801.0188,1.7076322425589348,313.3211572658001
3801.8933,1.7045827590287583,378.4755854032046
3802.77,1.701422000093585,356.1578340274259
3803.6448,1.69804805723768,367.8144764749998
3804.522,1.6943333084159593,343.5510836764619
3805.3972,1.6903684116841573,328.46349108889416
3806.2727,1.6865088077064845,370.2943094866126
3807.1504,1.68333254496438,314.1459581765897
3808.0261,1.681395336132126,355.420868774056
3808.9043,1.6808991653924996,377.00330035135454
3809.7805,1.681637018761197,387.86564900881143
3810.659,1.683151163834296,386.92138209423916
3811.5356,1.6850040456374102,351.43563222124516
3812.4126,1.686933044672021,380.0999505701512
3813.2917,1.6887335935747072,371.6934385831764
3814.169,1.6900630470141782,384.1675748655656
3815.0483,1.6904636488760167,359.2529222852965
3815.926,1.689554686548126,351.71926458885514
3816.806,1.6872431691996777,413.11473800735223
3817.684,1.6837550507074102,365.64512913671064
3818.5623,1.679504765051739,357.5561541446671
3819.4429,1.6750321313630103,362.7807497649952
3820.3215,1.6709896400628446,368.4683677936678
3821.2024,1.6679002323622527,387.17684261695535
3822.0815,1.6659963643450253,363.74753754481134
3822.963,1.6650575290945397,394.838030758851
3823.8423,1.6645653042572028,406.34344319663177
3824.722,1.6639573370017096,358.3106354851899
3825.604,1.662888886286235,401.7572568089441
3826.4841,1.6613206597126065,369.6301008869669
3827.3665,1.6593648969824994,405.4605277934002
3828.2468,1.6571002901646212,431.46961022219716
3829.1296,1.6544435944360387,375.45177856244686
3830.0105,1.6513012629442245,374.866200592227
3830.8916,1.6477065098714063,425.65453718849915
3831.7751,1.643912414263441,429.8427356488459
3832.6565,1.6403501201715318,338.3039299374897
3833.5403,1.637412566488401,379.26016625591717
3834.4224,1.6353709658921856,379.2300823376147
3835.3064,1.6342085128441237,428.6225745565139
3836.1887,1.6336856132301834,423.86793672577306
3837.0713,1.6335213110588973,439.61034746540696
3837.956,1.6335906364321393,419.3136328169209
3838.839,1.6338707004688346,404.7056051557621
3839.7244,1.6342431196932756,359.75066353465695
3840.6077,1.6344447132541033,417.36365453729525
3841.4932,1.6342793771638073,380.19092898041316
3842.377,1.6338403699623794,392.35001070158603
3843.261,1.6335008929809751,380.51386129226205
3844.1472,1.6336897553845786,435.15603212902033
3845.0315,1.6346273236785391,373.52101500577106
3845.9182,1.6361678466529814,371.8094079965938
3846.803,1.6377835094508053,386.9386670707631
3847.69,1.6388304724788458,378.39149425955316
3848.5752,1.6389607376306365,419.53746858121673
3849.4604,1.6384502887320336,433.41791489795907
3850.3481,1.6380283575825842,408.9784850181257
3851.234,1.6383458411920164,399.9223534154278
3852.122,1.639533653653916,411.64628430823603
3853.0083,1.641174310509316,423.1070891769115
3853.8967,1.6425742782649262,381.85946124149467
3854.7832,1.6430135101767043,387.99190748773
3855.6702,1.6420171574873625,401.51079237642415
3856.559,1.6395712110512846,404.16844162714716
3857.4463,1.6362206876429184,408.4673683223465
3858.336,1.632786315592196,419.0185142565357
3859.2234,1.6299943640020091,408.70114448579824
3860.1135,1.6281314243983298,412.48777181039185
3861.0015,1.6271236183889626,389.45385907071335
3861.8896,1.6266913850462466,399.4075740307522
3862.7803,1.6265503807980792,447.8671417036534
3863.6687,1.6265016645171786,448.2472004294279
3864.5598,1.626425576561811,405.84409959016614
3865.4487,1.6261578582626712,409.9545897975554
3866.34,1.6253473968668852,381.88777010669725
3867.2297,1.6235355134734508,423.7652856126504
3868.1213,1.620454963932219,377.27989322795344
3869.0112,1.6163418395222704,394.20088279172523
3869.9014,1.6118286169532285,410.4133755539186
3870.7937,1.607567317428977,439.26283542129096
3871.684,1.6038774057764666,416.3453173136303
3872.577,1.6006067261590178,437.3504766260596
3873.4678,1.5974641578381905,438.2110803243496
3874.361,1.5942993512644756,406.33996587294536
3875.2524,1.5913216351546073,409.9249001293508
3876.1438,1.5889044512031847,492.79093326875693
3877.0376,1.5873041202411375,416.31842053848317
3877.9297,1.5864226282915317,452.02536589110963
3878.8237,1.5857447388976895,378.9514533344058
3879.716,1.5845379897930252,426.9422373683107
3880.6108,1.582184080005994,437.71988722387624
3881.5037,1.5786092260293523,439.0177217762584
3882.3965,1.574426582718787,432.488211877371
3883.2917,1.570637897824404,470.6773659113091
3884.185,1.5679956384902816,476.7509944004738
3885.0808,1.5664353692709814,461.64955098540815
3885.9746,1.5652521939850963,483.45017475427846
3886.8706,1.563702335557381,438.33192928777436
3887.765,1.5615827097172108,447.8391979404241
3888.6592,1.5592172602850567,453.3483699953669
3889.556,1.5570679743254532,444.0549055132537
3890.4507,1.5554494130708876,461.2786840089141
3891.348,1.5545293701915164,454.9316584749278
3892.243,1.5545174190917161,406.85381706649775
3893.1406,1.5556176347032866,440.00222274881725
3894.0361,1.5578342135670717,445.3600527344015
3894.932,1.5609153391972632,458.9057332493267
3895.83,1.564486288200853,469.2026905223836
3896.7263,1.5681502210471543,458.41410513160804
3897.625,1.5715779190375574,474.19763805881746
3898.5215,1.5745199680951547,407.2871569949984
3899.4207,1.5770943674644422,407.6382972522804
3900.3176,1.5797982421350572,440.61707262108877
3901.2148,1.5831971096987547,419.7016549942772
3902.1145,1.587341806225589,486.4879558851822
3903.0122,1.5915745001271513,454.6828695483412
3903.912,1.5950955657309929,473.9446041081404
3904.8103,1.5975832303962703,424.00255255039554
3905.7107,1.5994827275564731,420.738748481919
3906.6094,1.6015973145959583,397.70925435286495
3907.508,1.6045814273395664,429.28497077789825
3908.409,1.6086649989898385,373.0194394658608
3909.308,1.6136867591115933,388.94472323456677
3910.2097,1.6193364252530307,408.4384789408466
3911.1091,1.6251045497262284,367.88573462466974
3912.011,1.6303140462881405,413.76735676393935
3912.9111,1.6340602709586882,396.53930045977097
3913.8113,1.635630407030803,351.44427205912183
3914.7136,1.6348771865329497,430.439945850262
3915.6143,1.6323940946067357,401.53378165034724
3916.517,1.6292098105553323,427.28376471581106
3917.4182,1.6263010014264745,418.5103889235074
3918.3215,1.62413902423136,408.14644422659535
3919.223,1.6226242054674789,407.82677451967425
3920.1245,1.6212130091342665,399.2639543198346
3921.0286,1.6192828521896407,398.05912907685683
3921.9307,1.6165531836314926,400.03186329314195
3922.835,1.6132976182940093,405.22605355019743
3923.7373,1.610269570133238,457.34885506403236
3924.642,1.608202046006569,426.83661693933016
3925.5452,1.6074350412111351,423.44381749516845
3926.448,1.607808069889985,403.53434700990397
3927.3535,1.6089190230993888,382.5736135538338
3928.257,1.6102891530832504,426.54755050017536
3929.1628,1.6113559472612207,429.5008439488524
3930.0667,1.6114348002947585,420.8090910677666
3930.9731,1.60995335064485,396.56488631540566
3931.8774,1.6068069444678375,403.63122845167027
3932.782,1.6024628698121748,431.85687173587326
3933.6887,1.5977066771334651,446.9209802515414
