wavl,flux,ivar
3566.9744,8.76617307264939,38.65289367399946
3567.795,8.743930280603681,42.51489763419417
3568.6177,8.716887339713557,38.702283968128036
3569.4385,8.688735613945843,38.34811417586413
3570.2617,8.661314296329959,45.731052118913695
3571.083,8.635049459148794,37.65420651104707
3571.9065,8.608902742701169,40.70837325108217
3572.7283,8.582624113089972,46.92952747072018
3573.55,8.558302265128628,38.92975739208338
3574.374,8.540665259105017,45.63051604253705
3575.1963,8.534494139809322,48.771140362107175
3576.0208,8.540745637857635,39.99456783434688
3576.8435,8.55534700803523,47.39144470408363
3577.6682,8.571561572600276,32.52297202665573
3578.4915,8.583582338135939,36.03781490492688
3579.3145,8.588850175626638,39.113256795491395
3580.14,8.587599980584974,36.288615746064714
3580.9636,8.582086983593717,34.86140194685384
3581.7893,8.576488257789403,40.541906472202804
3582.6133,8.57641617606705,39.322454787677344
3583.4395,8.586430076195235,35.792405387011016
3584.264,8.606828282758483,45.90741013217794
3585.0884,8.632796859115961,36.95613250289695
3585.915,8.656776992742062,36.44444059198041
3586.74,8.672006369480478,40.624545417303516
3587.5671,8.675288868692096,37.73927596709918
3588.3923,8.666748234155001,43.45633165727293
3589.22,8.648388422196902,42.60383482708715
3590.0457,8.622790550079998,40.24788261353622
3590.8716,8.592298960724092,38.1038124773572
3591.6995,8.55952633972822,45.58089563642858
3592.526,8.528025358871364,45.18647865400845
3593.3542,8.501094095470194,43.607148167348846
3594.181,8.480376031777677,45.947204639384296
3595.0098,8.464107478552608,47.08722661390615
3595.8367,8.448497587134716,42.74643645944068
3596.6638,8.430073251299975,46.67992149082449
3597.4934,8.407689037754363,46.18204877574808
3598.3208,8.382380538458836,42.910848852376176
3599.1506,8.355167246845657,41.30826732720227
3599.9788,8.326716698018744,45.65660528963629
3600.8088,8.29795196112927,41.86622503441082
3601.6372,8.272348930115033,47.38919613070078
3602.4678,8.255404516837432,44.59296359858842
3603.2964,8.252441373011248,47.51424145096026
3604.1252,8.26530422339253,45.6358941263543
3604.9565,8.29182701343816,47.11407163411114
3605.786,8.326658324626901,45.31151053133413
3606.6172,8.363287038320296,47.43946178852966
3607.447,8.39475522421563,39.85179317716303
3608.2788,8.415924387603393,41.01465299872582
3609.109,8.42464698813635,39.97120895704961
3609.9392,8.422270494468698,42.79301868976468
3610.7717,8.41206603822185,43.33344158393428
3611.6023,8.397886973333243,45.55871339712438
3612.435,8.382762189239784,48.018552644284725
3613.266,8.368109524202088,37.68043795164966
3614.0994,8.353202938786767,47.47954179529262
3614.9307,8.336694991934921,42.32700588905075
3615.7625,8.318335611733765,49.17901685661343
3616.5962,8.300082368086635,40.184301943552605
3617.4282,8.285262078409298,41.267328976509646
3618.2625,8.276072255321164,46.304804588655394
3619.0947,8.271918204086946,41.905963623456024
3619.9292,8.269237913368238,44.011210089674876
3620.762,8.263893944848034,51.546179112743154
3621.595,8.254101751575297,46.27683095930556
3622.4302,8.241646431273512,44.71025373043514
3623.2634,8.230272221022464,43.67715208140321
3624.0989,8.222068590711345,48.18049630469338
3624.9326,8.215490193363253,43.354838860169494
3625.7686,8.206283925313532,39.94374755386506
3626.6028,8.191379711312896,46.42099953744989
3627.437,8.171936973902465,37.46447032719436
3628.2734,8.153057475596563,48.50418870078372
3629.1082,8.140322146123562,39.79171120735635
3629.945,8.135666043131366,46.79259816079351
3630.78,8.136631443003047,42.8368894540195
3631.6174,8.138581376390226,45.851991080957056
3632.453,8.138218513052246,49.82503708353529
3633.2883,8.13565845860261,43.63078113563371
3634.1262,8.133630770960478,47.61718421946177
3634.9622,8.134566110608445,44.14239744288018
3635.8005,8.137823019995798,47.72170195935727
3636.637,8.139644700720924,42.6079630140119
3637.4756,8.136187477468857,37.17953137916177
3638.3123,8.126883479217836,47.7457364829084
3639.1492,8.114807382849168,48.61680240195925
3639.9885,8.103729933285775,45.660361801690684
3640.826,8.095029848632144,43.5908816195866
3641.6653,8.087358142278843,45.96640878055776
3642.5032,8.079665103531385,44.46194738301438
3643.343,8.07353403485114,46.611835176305405
3644.1812,8.072457272897537,48.9917107258809
3645.0195,8.07830142197973,52.323923164220446
3645.86,8.08891358980013,46.0601593073467
3646.699,8.099012878368411,46.85998820728498
3647.5398,8.103883002454044,48.261404013942574
3648.379,8.102013220407445,46.52964223040413
3649.2202,8.095060376784426,43.16927781282072
3650.0596,8.085549189912626,48.114916913752865
3650.8994,8.074446008326811,47.76512606045708
3651.7412,8.060673688408269,49.59191800710677
3652.5813,8.042732696226514,45.08909614310201
3653.4236,8.020579627720378,54.87527296440179
3654.2642,7.996566330490199,46.056406204562705
3655.1067,7.973531547107271,48.97621401151543
3655.9475,7.95320803628434,52.29005919834313
3656.7886,7.935482226209911,45.722109596592354
3657.6318,7.919821981364304,50.530412866679896
3658.4734,7.90657675978294,52.298530799659694
3659.317,7.896768560575285,49.235601507367164
3660.1587,7.8913900489483835,47.23504505739065
3661.003,7.890182643682369,51.21382582644003
3661.845,7.89136296383739,47.95465003612944
3662.6875,7.892560136205586,48.0639514010843
3663.532,7.8928173333885825,46.62833221245814
3664.3748,7.8937439852766405,52.86438579854171
3665.2197,7.898134191688175,50.54651189305965
3666.063,7.906829621963639,53.700924758104215
3666.9084,7.917142703963533,52.479199827140704
3667.752,7.92444404312695,46.70505539801887
3668.5977,7.925942816218118,46.23641501987571
3669.4417,7.922885890078678,51.59725641684846
3670.286,7.919827418246719,49.32267750931341
3671.132,7.921419861834178,53.52152640841867
3671.9768,7.9289529513740415,53.2972853723779
3672.8235,7.939011190717707,49.116058196232366
3673.6685,7.945108430538255,48.742395168592246
3674.5156,7.94145443750523,50.003819924071635
3675.3608,7.925964357024295,51.62152152523704
3676.2063,7.901023211802955,49.91121872571804
3677.0542,7.872149504924077,58.21996844683065
3677.9,7.846064367085803,46.244298168013465
3678.748,7.827721526782982,57.21276004607147
3679.5945,7.818857531690085,49.13181826480928
3680.4429,7.817097237139825,54.9073374453505
3681.2896,7.817601033773533,45.52550566165932
3682.1365,7.815614758501681,53.46010757066476
3682.9856,7.808465071491285,49.059782256716254
3683.8328,7.796015727581786,52.05811843870792
3684.6824,7.77973673720723,54.41873700758235
3685.53,7.762097357000695,49.698821337003565
3686.38,7.7458810750427425,54.0129296532577
3687.2278,7.734254240115544,50.10468689253371
3688.0762,7.729765876704975,46.92858784045583
3688.9265,7.733292138945268,53.010260316571674
3689.7751,7.742893320825069,49.68936699924538
3690.626,7.754099509445824,49.17164502986969
3691.475,7.761602478263404,43.513296615706935
3692.3264,7.762078359420595,51.80767972357018
3693.1758,7.755900392551197,52.34576078007779
3694.0254,7.746712874007845,48.27370695463191
3694.8772,7.738855768060994,52.006127677207004
3695.7273,7.734771338882533,51.83188065275146
3696.5793,7.734231851749957,53.857822675686556
3697.43,7.735991543553083,51.70147053505644
3698.2825,7.739545464724535,56.974476617444054
3699.1333,7.745021265439888,53.41322894895268
3699.9841,7.751495556319894,50.87427409570658
3700.8374,7.755848774019374,50.36595711354154
3701.6887,7.7539493749904596,51.26488881740375
3702.5425,7.743569592641596,50.73683654220399
3703.3943,7.726344494470725,47.03546398474995
3704.2483,7.706655882083101,53.5507536889239
3705.1003,7.6890524685951664,52.46298594570198
3705.9526,7.675746106742585,50.27836668585803
3706.8074,7.666794220880499,50.91476924654351
3707.66,7.6613289617287235,51.45842626558587
3708.515,7.65786866182405,47.12614626459434
3709.3682,7.653798962105237,53.48012876494564
3710.2234,7.645211585115606,54.27848838440405
3711.0771,7.628799894987524,52.62044108031012
3711.9307,7.603968488157271,55.83003354265557
3712.7866,7.572871897051721,52.59770441206198
3713.6409,7.53887648518218,50.952340667046954
3714.4973,7.50468923273029,54.881459880620355
3715.3518,7.473314012440108,58.658891740903044
3716.2085,7.447692308700024,57.61085612884186
3717.0635,7.4300994160385185,62.388094530182016
3717.9185,7.420639252143151,55.905180608137265
3718.776,7.418454652680679,53.233479245115205
3719.6313,7.42349554582949,59.9755270204911
3720.489,7.436315907615007,56.87835821033941
3721.345,7.455466456976696,56.08558991956589
3722.2031,7.476090511448251,54.50095646123447
3723.0593,7.491524406140625,50.49959904582453
3723.9158,7.497518060652929,55.739108058451045
3724.7747,7.494077742122516,58.60089368217408
3725.6316,7.484393657895954,56.8849573660644
3726.4905,7.472198252925579,52.56274411800036
3727.348,7.460279857011191,53.12187813740258
3728.2073,7.449952487087939,52.53497597599983
3729.065,7.441353035425499,55.960784409684045
3729.9229,7.433633058714392,53.06612735160291
3730.783,7.425705556580376,56.88301620828878
3731.6414,7.416934974847709,56.223612740257984
3732.5017,7.407118125729647,50.284626049508816
3733.3604,7.396289547127644,56.29185445478494
3734.2214,7.38432524975134,59.81788723759487
3735.0803,7.371405370066353,55.375015917954116
3735.9417,7.358221363820154,57.545794918126795
3736.8013,7.346380030608773,56.552356258353576
3737.661,7.337785348547537,59.380681406661225
3738.5227,7.33406066991268,58.122531638135506
3739.3828,7.335870807568457,56.697641402909106
3740.245,7.3422953178236625,62.51049387657253
3741.1055,7.350465324802162,56.62873970344316
3741.9683,7.356086670933795,52.467715961917115
3742.829,7.354769920617003,56.384554120946206
3743.69,7.343898539665159,56.345158099645644
3744.5532,7.323320724920045,57.68498794773774
3745.4148,7.295117083440801,61.28356894283464
3746.2786,7.262205287426801,65.80007451433724
3747.1404,7.228486111620879,58.6902138220236
3748.0044,7.198866248380078,62.26794405422379
3748.8667,7.179993907231886,58.96466457971147
3749.729,7.177684950008635,56.69127089795643
3750.5938,7.1934741031481275,59.50897754931028
3751.4565,7.222101960113101,59.58311936505789
3752.3215,7.254026817006135,59.192766426094146
3753.1848,7.280470764190315,53.1602310066983
3754.0503,7.2982904042832235,54.39628847193382
3754.9138,7.309526957304194,57.49240590416524
3755.7776,7.318169450560844,57.144860035950124
3756.6438,7.326297272790507,61.15330754376709
3757.508,7.332854139941923,59.105972886199474
3758.3745,7.33521513218151,51.03108557488799
3759.239,7.331532371378609,54.20866920432036
3760.106,7.322272966787908,54.58766320332688
3760.971,7.309851684752822,55.57106295109532
3761.8362,7.296567018355482,61.05298233005225
3762.7036,7.282822107668103,60.76928082462614
3763.5693,7.266877847312758,53.99612800059321
3764.437,7.245802393101521,56.24002847725952
3765.3032,7.217374711165805,57.106288744659274
3766.1714,7.180810787795347,57.632479894962216
3767.0378,7.137739690085938,52.89056700655586
3767.9043,7.091914938233064,59.506955302006645
3768.7732,7.049016153735578,63.6515404515228
3769.6401,7.015603722305082,66.33176845027519
3770.5095,6.996219122826918,64.93991922781424
3771.377,6.992311222137226,64.62967240100492
3772.2466,7.001726840165506,58.82242382301322
3773.1145,7.020306313617306,66.5134368597186
3773.9824,7.044039046006484,56.321661103276064
3774.8528,7.070604318911733,65.83668267863563
3775.721,7.099630372710283,57.854902363678185
3776.5918,7.133617741639924,57.116155633495424
3777.4604,7.178125525266741,61.69684574014418
3778.3315,7.242310355283948,51.43487292411955
3779.201,7.333068572503151,63.55682592964919
3780.0703,7.446012222611188,62.999406564639685
3780.942,7.55752023643359,59.860456597316116
3781.8118,7.629509375835344,58.94027126372895
3782.6838,7.632212038752331,53.77619826521096
3783.554,7.564157820817378,57.76529366756931
3784.4265,7.453171017759181,56.23193394437672
3785.297,7.337724652088228,55.506731382028455
3786.168,7.243700823544186,59.82644932457457
3787.041,7.178513442008901,65.42410411574781
3787.912,7.137658503989512,63.05408469622777
3788.7856,7.112107748365024,59.3965576581115
3789.6572,7.093342208168633,60.08670118988753
3790.531,7.073985998238679,57.535942099725816
3791.403,7.048963441497503,61.57957922750615
3792.2754,7.0153914040335685,59.88198453459321
3793.15,6.971952971751807,62.59042264109507
3794.0225,6.918593789282275,61.06215420682351
3794.8972,6.856168626961915,63.072370844408596
3795.7703,6.788823877917694,65.57676746095376
3796.6455,6.723955328875025,71.1607622798138
3797.519,6.672523223759842,67.43754410728253
3798.3926,6.644814117195278,75.25960528543563
3799.2686,6.646666753812859,72.9372540246407
3800.1426,6.676244141206557,72.3179740382134
3801.0188,6.724816735965586,64.55085980181482
3801.8933,6.780539953746746,60.32276406032906
3802.77,6.834125575909929,64.09827018700798
3803.6448,6.880362299000675,70.67477548139968
3804.522,6.918147439096753,67.14114575691568
3805.3972,6.947240400029447,67.20844510187116
3806.2727,6.967712965634993,59.377063856644334
3807.1504,6.980301969454729,60.66551678945489
3808.0261,6.988046740403671,61.85189612086474
3808.9043,6.996865360506026,56.48659547551802
3809.7805,7.013148738553493,95.15502045530761
3810.659,7.040345994962482,61.52757522983472
3811.5356,7.076515148879038,56.5070085176473
3812.4126,7.115855992197947,60.17204483558473
3813.2917,7.151469472078854,57.79372997776316
3814.169,7.177291796758768,57.16908804802206
3815.0483,7.189703443997679,58.42721246901497
3815.926,7.188059623602016,59.26347663963213
3816.806,7.175529802986512,60.87578904988016
3817.684,7.157740961832554,53.66914221831867
3818.5623,7.139298077191947,55.42589660768004
3819.4429,7.120990843912635,59.379321280487176
3820.3215,7.100150276216129,57.986716233442216
3821.2024,7.073168327986598,61.35553938583603
3822.0815,7.038703257656632,60.457255291943596
3822.963,6.997579043712315,70.81315547734296
3823.8423,6.951664702183221,63.073878310396786
3824.722,6.90143637340958,59.879312507250894
3825.604,6.845947245924725,67.37533213411773
3826.4841,6.7842884500332925,65.56302712979479
3827.3665,6.7155336366710445,65.60146018163128
3828.2468,6.640030712862885,67.51862214374341
3829.1296,6.557693575131858,64.50419797914604
3830.0105,6.469134738268279,67.63732687988097
3830.8916,6.374185741834376,74.45192752275898
3831.7751,6.272978305978209,72.66576253223212
3832.6565,6.1683772100111565,78.92817707088128
3833.5403,6.0662789957850425,79.40249042223365
3834.4224,5.9786744395969285,95.00783260904124
3835.3064,5.9197199956112705,93.03963257810693
3836.1887,5.901813758600736,93.89508472853794
3837.0713,5.928834117187152,84.95997244253145
3837.956,5.99467467710479,75.63168291664891
3838.839,6.085666357411558,100.00781738267091
3839.7244,6.188039307832805,71.20067032030467
3840.6077,6.291230330246386,78.43444683131527
3841.4932,6.390458824610086,76.08831202606592
3842.377,6.482953109412921,76.36709640285653
3843.261,6.567699301600837,63.07679065187138
3844.1472,6.644200899057053,70.64491014268029
3845.0315,6.7122712864485,65.30969547443233
3845.9182,6.773494247978356,70.09312816603642
3846.803,6.829976223950988,65.27787091934226
3847.69,6.885264461525879,59.94036141369226
3848.5752,6.94200574528548,65.48211430040014
3849.4604,7.0009972429968235,63.279313148444785
3850.3481,7.060074681675973,56.827282911250435
3851.234,7.114760126676891,62.780389296516404
3852.122,7.161433925502205,58.92294647790878
3853.0083,7.197669362354935,58.18241538257337
3853.8967,7.223152570026422,55.14484826092453
3854.7832,7.238418743900436,57.14847474333848
3855.6702,7.244990397043237,57.52656241611412
3856.559,7.245114106219378,56.067166480137544
3857.4463,7.241750425926607,57.88563728919756
3858.336,7.237862061191873,61.854568437961454
3859.2234,7.235363992118077,61.12897372030991
3860.1135,7.234428237330258,60.00574019726234
3861.0015,7.2339433774807675,54.82518823471488
3861.8896,7.232470450253951,52.455284232574805
3862.7803,7.228737840280244,60.515221994881486
3863.6687,7.221350600976925,55.62082402149702
3864.5598,7.208350566273875,61.40682196146286
3865.4487,7.187943064230591,56.15732931766383
3866.34,7.159357867641717,53.73007395086567
3867.2297,7.123842724647184,57.06946686345053
3868.1213,7.0834446843737675,57.40086517534423
3869.0112,7.040149053819817,59.35770205057957
3869.9014,6.994409159943435,59.77332871169397
3870.7937,6.945742694080345,58.90273049801735
3871.684,6.894338661667629,63.613067298669144
3872.577,6.841063747336555,63.28183763516163
3873.4678,6.787829201257925,67.05637325840482
3874.361,6.734910603429097,65.6289500077801
3875.2524,6.680844091799671,66.48284823442569
3876.1438,6.621972304023029,70.06295296431885
3877.0376,6.5544709980719835,69.91332665858913
3877.9297,6.476794733001642,70.38705620721298
3878.8237,6.389377470948185,72.68571184700528
3879.716,6.2950968223629395,77.21032030453016
3880.6108,6.195745597777969,76.3824900349397
3881.5037,6.091877318401439,77.1727571394449
3882.3965,5.980954605879189,89.1997711577086
3883.2917,5.859471405675066,88.94402891635501
3884.185,5.726038729829719,87.297109420844
3885.0808,5.580321122362273,95.14137498111974
3885.9746,5.426058907999377,99.73453728799225
3886.8706,5.269375743117799,106.3111462649316
3887.765,5.12358100849039,119.474186484766
3888.6592,5.007202756734859,127.15242548545507
3889.556,4.941003043831087,144.7993801352252
3890.4507,4.939992136096178,142.25467106697576
3891.348,5.005174395553435,122.51443750347687
3892.243,5.122541910560578,112.47025713664252
3893.1406,5.2706266403088895,113.97888374388445
3894.0361,5.427408069271201,101.23216708366716
3894.932,5.579406698261574,95.70343003452804
3895.83,5.721387666143612,103.45470685631406
3896.7263,5.852237710962669,86.07151203837624
3897.625,5.973664858179284,77.34000631631312
3898.5215,6.085982444696765,77.12992630602407
3899.4207,6.190912248612476,72.19973285356858
3900.3176,6.289558981363261,80.84654564679703
3901.2148,6.38380251136329,78.07672671987268
3902.1145,6.474190184084258,71.42687622059994
3903.0122,6.559135303053367,63.43296709181838
3903.912,6.637743260021844,63.446979189720416
3904.8103,6.709913852345476,81.64772321720562
3905.7107,6.777929164712504,67.00013514615625
3906.6094,6.843649076339259,59.11623927547744
3907.508,6.907792649176655,64.08509479703042
3908.409,6.969115269576567,64.12341547774831
3909.308,7.025203326797863,58.39697805229516
3910.2097,7.0752568944496055,59.712216698136785
3911.1091,7.120053011192791,64.73431410063222
3912.011,7.162274630954475,60.82344313150621
3912.9111,7.203745259269598,63.72341192102224
3913.8113,7.244563046780582,60.43282713790887
3914.7136,7.282685393040009,53.29635655286601
3915.6143,7.314965914562471,57.2174591012645
3916.517,7.339437958516536,56.38410868877993
3917.4182,7.3557426682278475,55.03234705789802
3918.3215,7.365410511512574,51.55207435911943
3919.223,7.370893654072987,53.52486119531218
3920.1245,7.3751697424160305,50.41093949978533
3921.0286,7.381060492317218,56.80707325549385
3921.9307,7.3903004522195666,60.04929543651819
3922.835,7.402948090884951,51.80679290701622
3923.7373,7.417534555504079,54.35304257930879
3924.642,7.432432472204698,55.80075992892157
3925.5452,7.446415992974835,53.711591183845364
3926.448,7.4588344429481745,54.53517849786369
3927.3535,7.469151527680888,56.986194964903724
3928.257,7.476748642288941,51.50690334159527
3929.1628,7.481162925757618,56.767615944606625
3930.0667,7.481948557707236,52.75134828896368
3930.9731,7.4788172063096505,47.55146989745705
3931.8774,7.471799181532462,53.91984993968887
3932.782,7.46117208617663,57.74657294671722
3933.6887,7.44714674418324,54.13540414118787
3934.5938,7.429872035950863,60.08696912936099
3935.501,7.4095458017291085,54.96092216756302
3936.4062,7.387004549338644,55.34895281873041
3937.3142,7.362868731371634,55.58079114692227
3938.22,7.336983527886791,58.69565509387516
3939.128,7.3075584707835235,55.08519437632284
3940.0342,7.272716876337758,57.036078460923065
3940.9407,7.231754276178711,61.92873183868874
3941.8494,7.186097409189486,56.207661493186606
3942.756,7.138754777605267,61.78848805593233
