wavl,flux,ivar
3566.9744,0.6867164200824706,925.7008386404277
3567.795,0.684231656288165,741.2944904516509
3568.6177,0.6815684301901619,1283.7032745794384
3569.4385,0.6799430151366775,903.1641505224644
3570.2617,0.6800092339647721,1179.7552158827457
3571.083,0.6818675782795739,674.5456714747535
3571.9065,0.6853871703436033,1033.4255679225093
3572.7283,0.6903642409874858,584.236229966313
3573.55,0.6963881805858383,1553.758203720271
3574.374,0.7025031487955719,670.2671037504135
3575.1963,0.707142464618308,1027.783885786368
3576.0208,0.708786701784714,817.2085768049092
3576.8435,0.7067511923468727,836.596972790522
3577.6682,0.701707446003041,712.8164924156727
3578.4915,0.695410322134574,759.4562590798039
3579.3145,0.6897897304099654,901.913983194687
3580.14,0.6861848063347642,891.4768333816903
3580.9636,0.6850218660338346,905.330932917739
3581.7893,0.6858265784504842,1335.5954302265825
3582.6133,0.6876884636322795,1839.2856639513516
3583.4395,0.6899246564849139,674.5206772871837
3584.264,0.6924688905598985,1309.0494980512444
3585.0884,0.6956044020677903,1007.9420733152181
3585.915,0.699157412514176,775.3466559682635
3586.74,0.7020155997490727,782.3189370216077
3587.5671,0.702599594188834,783.0256116450528
3588.3923,0.6997642099300573,656.0359417178199
3589.22,0.693512507962889,748.2513775505174
3590.0457,0.6851526413880072,983.3894146352159
3590.8716,0.6767455463795423,874.0613582306906
3591.6995,0.6704295099537297,659.0782970809873
3592.526,0.6677176337510485,946.0071140612649
3593.3542,0.668896480286927,1069.3732970072435
3594.181,0.6730013077026463,931.2775978357113
3595.0098,0.6783300090055984,797.1555788020681
3595.8367,0.683178791951441,953.718951257183
3596.6638,0.6865248467937451,850.5629893809929
3597.4934,0.6880727750734095,865.134946245835
3598.3208,0.6880117462141674,811.9492040200065
3599.1506,0.686779529138919,737.5052115967416
3599.9788,0.6849606343376768,1179.8414256760886
3600.8088,0.6832195471665711,746.1925479704317
3601.6372,0.6821414282696592,1264.320551229969
3602.4678,0.681938464819561,832.4324744381559
3603.2964,0.6823880466193465,1110.4376469262577
3604.1252,0.6830895863791329,631.2049728973627
3604.9565,0.6838412739204737,1070.1905669907667
3605.786,0.684726450968393,1031.2506653041983
3606.6172,0.6858817471867301,914.7087882367604
3607.447,0.6872187024251588,822.0988132032875
3608.2788,0.6884609734214593,505.47249885741076
3609.109,0.6893396963616617,678.6411401740447
3609.9392,0.6897513095639368,1501.9593711357759
3610.7717,0.6897219017833915,823.7819846940089
3611.6023,0.6893413753389724,686.7373287539001
3612.435,0.6887245978833271,1285.8175871696374
3613.266,0.6880238851197445,815.6329556077851
3614.0994,0.6874767911435623,1045.4096405135901
3614.9307,0.6874405682531566,762.0318270705495
3615.7625,0.6881810308066897,990.9826091234954
3616.5962,0.6894947888459854,1084.5907502916245
3617.4282,0.6905548281145237,536.1081797846314
3618.2625,0.6903661213302151,929.2101740512456
3619.0947,0.6884692891894955,654.1999770332731
3619.9292,0.6852779563394891,1040.3816058808497
3620.762,0.6818505774857057,1021.780864118534
3621.595,0.6792629972780961,807.5604595685387
3622.4302,0.6780971024401802,978.0019699882405
3623.2634,0.678152532723499,843.4388427106207
3624.0989,0.6785709016135318,918.348842086805
3624.9326,0.6784336311985566,1043.9479595856435
3625.7686,0.6774027031273516,882.0910749087165
3626.6028,0.6758480193648061,1461.4249901602159
3627.437,0.6743607459392653,869.0184497364382
3628.2734,0.6732630950697159,757.7001514530306
3629.1082,0.6726038164924594,1155.8451108941492
3629.945,0.6724474992021385,1248.6973327611133
3630.78,0.6729965537277779,909.7215143040697
3631.6174,0.6743438472295664,743.7474580268029
3632.453,0.676174259353773,809.9165216141052
3633.2883,0.6778052686859962,851.3543691455786
3634.1262,0.6785165660898792,806.6240278757068
3634.9622,0.6779371173160144,1028.7930544110677
3635.8005,0.6761832709946586,875.2275909189738
3636.637,0.6736309786343343,1060.4035788992028
3637.4756,0.6705324623158531,728.0839150809402
3638.3123,0.6670268114283923,797.8770351966955
3639.1492,0.6634232073483195,722.0807037973817
3639.9885,0.6604358081159567,1019.4544468955711
3640.826,0.6588583858027985,1387.4072695074806
3641.6653,0.6588758095494902,997.0924865783649
3642.5032,0.6598486435756357,1266.015054794109
3643.343,0.6606936114629375,1155.9332839370547
3644.1812,0.6604756672876327,1013.6169709391137
3645.0195,0.6587517124713507,1059.8027454678631
3645.86,0.6555964754138311,823.4384414121189
3646.699,0.6516148986405964,1017.4410004214188
3647.5398,0.647831050565558,1135.9914140309622
3648.379,0.6454853134669876,1063.0193970240296
3649.2202,0.6454526179475689,1125.9381839434373
3650.0596,0.6477338948801697,1452.4997054347923
3650.8994,0.6513174289145683,1196.414691363676
3651.7412,0.6546753276538367,1262.3240195909436
3652.5813,0.6565656187525765,834.4134934152878
3653.4236,0.6566642189551732,896.486451237333
3654.2642,0.6555163613772703,988.7537153015746
3655.1067,0.65406883459486,903.7442882338255
3655.9475,0.6531626501378779,985.4990305256813
3656.7886,0.6532248583747805,787.7470909753888
3657.6318,0.6542748851311937,1222.0166298258225
3658.4734,0.6561350746292556,996.6113547462872
3659.317,0.6587683354111228,1121.0702892975207
3660.1587,0.6623316868532839,881.8851911131053
3661.003,0.6669000770889071,828.742076450088
3661.845,0.6719811965056476,1088.4453885307887
3662.6875,0.6766274810968651,1046.1840015117646
3663.532,0.6798845214836202,1273.6831288175633
3664.3748,0.6812460726976091,713.7172066356794
3665.2197,0.6807368262382737,1020.5822330090224
3666.063,0.6786702397104878,1039.794468885702
3666.9084,0.6754968454145022,759.8471746848362
3667.752,0.6718215987286635,1693.7797371262964
3668.5977,0.6682725989287182,902.2377738171318
3669.4417,0.6653614588914466,799.3810850856969
3670.286,0.6632720365158742,1390.1764879587647
3671.132,0.6619538333032265,766.6934338664844
3671.9768,0.6612772913599453,937.8615411386386
3672.8235,0.6610119051182075,792.8585916096044
3673.6685,0.6606897592079117,791.6379480653328
3674.5156,0.6596381618112651,949.9842492639831
3675.3608,0.6573922752444509,1232.0803818242418
3676.2063,0.6541078180646066,906.1023824836268
3677.0542,0.6505460966247527,988.7012472375957
3677.9,0.6476118396861534,1127.213148817486
3678.748,0.645745442594931,877.2280130175308
3679.5945,0.6448478461330248,1036.8752842925292
3680.4429,0.6445568217470841,833.9997811431004
3681.2896,0.644685038342955,1006.1804968152165
3682.1365,0.6453423571220235,1708.0371890117322
3682.9856,0.6466993986971841,1090.5858801886202
3683.8328,0.6486357139703559,899.5241065312811
3684.6824,0.6507034429589813,1130.5576920325045
3685.53,0.652368055451762,1086.5085639418935
3686.38,0.6533917290697187,1063.1116235935754
3687.2278,0.6539333408351614,1514.1854358803769
3688.0762,0.6543992123409674,1433.496114128487
3688.9265,0.6550919449648561,715.8936927549877
3689.7751,0.6559658511587061,801.4426644580218
3690.626,0.6567280233999485,1150.985078257687
3691.475,0.6571598931642144,781.0609900393251
3692.3264,0.6573353377163883,1489.0631314155032
3693.1758,0.6574747809308107,992.0405914874103
3694.0254,0.6576778428711927,1074.8466489492384
3694.8772,0.6578381505586274,885.9201568748774
3695.7273,0.6577634441066449,1355.6370291023954
3696.5793,0.6572751667750174,789.7679371419307
3697.43,0.6561874871201782,1378.4962104802557
3698.2825,0.6542900717099837,965.8240760052545
3699.1333,0.6514962751699896,784.0678566863077
3699.9841,0.6479832037069027,1115.3624931755314
3700.8374,0.6441904437335993,1022.8877862903726
3701.6887,0.6406373028348908,961.4165782233301
3702.5425,0.6376085351599112,910.2936695190286
3703.3943,0.6351984303109681,999.0673648148831
3704.2483,0.6334241692166124,1189.8676347700325
3705.1003,0.6323766323736609,961.6716050276018
3705.9526,0.6320871590519244,974.0062468659879
3706.8074,0.6324385666451816,1117.7902283203218
3707.66,0.6332347489801371,1223.4720967417056
3708.515,0.6343752830603329,1109.1700546266734
3709.3682,0.6358342570778347,883.012223951312
3710.2234,0.6374878896558704,753.6676711956036
3711.0771,0.6389676395437274,931.0664967394997
3711.9307,0.6398050694378988,827.8631596349569
3712.7866,0.6396686745919535,1185.968733627739
3713.6409,0.6385356648058831,1301.9157950867104
3714.4973,0.636725353773599,1096.7415085698667
3715.3518,0.6348617352125531,1413.4993646104908
3716.2085,0.6336481933187681,1048.7906173856165
3717.0635,0.6335415930170162,2251.8349115177857
3717.9185,0.6344455089122881,931.8404320605523
3718.776,0.6358275180528106,1354.7787474565034
3719.6313,0.6371418786466032,828.2578859833679
3720.489,0.6382163492181951,1405.9583286265135
3721.345,0.6391799934141568,770.2327148914569
3722.2031,0.6401547421419786,1416.406616887226
3723.0593,0.6409932931815956,1146.868250468484
3723.9158,0.6413253542889694,1129.3342900170085
3724.7747,0.640755113457503,1208.381180725069
3725.6316,0.6390846557218807,1317.470129627331
3726.4905,0.6364111671997704,1156.4581893127022
3727.348,0.6331615985331435,835.8042069660623
3728.2073,0.6299797173285574,1018.95155366205
3729.065,0.627594161260457,6075.372464889586
3729.9229,0.6264872992428129,1239.4725715357274
3730.783,0.6266669374283328,1026.4633188093972
3731.6414,0.6276425453093332,926.829296583755
3732.5017,0.6287521209262756,1428.4163748831586
3733.3604,0.6295974043251554,1217.6273819448015
3734.2214,0.6302714414088814,1338.7812543162445
3735.0803,0.6311474909754764,867.2894555472079
3735.9417,0.6324798766102017,1345.9943466531174
3736.8013,0.6341164602363529,953.3122073302434
3737.661,0.6355990127874023,1008.3243111519806
3738.5227,0.6364551087623461,1197.9127356388592
3739.3828,0.6364685941332467,995.5134483772607
3740.245,0.6358026126539629,976.2621252478407
3741.1055,0.634909693033621,1242.2675448947145
3741.9683,0.6342687005183907,1473.486533268206
3742.829,0.6341589973966218,1077.6961520838333
3743.69,0.6346354644672896,1292.3015959362701
3744.5532,0.6356986769666341,1237.9236924296501
3745.4148,0.637324543018978,689.3327969789017
3746.2786,0.6393310072188687,1207.6276552885972
3747.1404,0.6412693365149185,928.9389831027629
3748.0044,0.6426611611801547,997.2617081941045
3748.8667,0.6432833053911056,1618.6823388643845
3749.729,0.6432955785606471,1083.030442211368
3750.5938,0.643029968035334,1064.0085641993896
3751.4565,0.6426967171981757,853.1048946016177
3752.3215,0.6421907620141121,1359.5837530702854
3753.1848,0.6411175475555675,1308.7593460792536
3754.0503,0.6390128433246691,1030.8858377062518
3754.9138,0.635741206602679,1083.9212993189112
3755.7776,0.6317357154810497,884.8012988096663
3756.6438,0.6278865316707036,1096.8130493184792
3757.508,0.6250910908244353,815.3028854097764
3758.3745,0.6237639559814643,1044.0010227367052
3759.239,0.6238529947333512,1105.3237904055331
3760.106,0.6250405292204495,914.2702269794923
3760.971,0.6268998444179967,905.3577714839138
3761.8362,0.6289411019145202,863.4146388229301
3762.7036,0.6306867496183185,1329.2432645009503
3763.5693,0.6318389599210628,1092.1776022873012
3764.437,0.6324198036513913,1160.6841342937755
3765.3032,0.632649797145731,997.7432302886206
3766.1714,0.6327042579182035,995.3724813257119
3767.0378,0.6325201473174485,1185.8971994580845
3767.9043,0.6318509089184179,1048.0880766904634
3768.7732,0.6305290535811342,944.858452208308
3769.6401,0.6287607179123004,1226.487736076598
3770.5095,0.6271427756900121,1165.9026194015537
3771.377,0.6263999593829176,1133.873094694668
3772.2466,0.6269084881887549,1143.8977191379277
3773.1145,0.6284327428475507,985.751760109126
3773.9824,0.6302345550992066,1275.6616372145027
3774.8528,0.6314915167735538,985.6628342641807
3775.721,0.6317489721236115,968.6230794589507
3776.5918,0.6311748228143979,1018.8319278009626
3777.4604,0.6304068069087597,1008.389088265748
3778.3315,0.6301105344347201,1034.0738430580136
3779.201,0.6305822169620475,1221.1338304317394
3780.0703,0.6316432654256989,1010.7038452582718
3780.942,0.632843898942439,1314.1337131440425
3781.8118,0.6337106072626266,1069.2193155584723
3782.6838,0.6339256089755656,1006.112010352291
3783.554,0.633359421635302,1159.3874499273493
3784.4265,0.6320425171326419,1194.354861854191
3785.297,0.6301433221914143,997.3736015802482
3786.168,0.6279785093964662,1294.997211361689
3787.041,0.6260605419246746,1242.324196325102
3787.912,0.624992757779232,918.8869340888144
3788.7856,0.6251198030024806,1176.1871534392064
3789.6572,0.6262381431269068,1138.5287089072983
3790.531,0.6275832065825374,1051.6279435956217
3791.403,0.6281456313953813,1141.600087088452
3792.2754,0.6271435944765413,1155.433183639545
3793.15,0.6243109221609209,782.2715492143366
3794.0225,0.619961675181058,1026.9542645812385
3794.8972,0.6147275263209597,1145.7218848780014
3795.7703,0.6093543032118807,1057.021634225373
3796.6455,0.6044522422508386,1266.9304460769831
3797.519,0.6005849561113076,1181.5003704765593
3798.3926,0.5981973070743669,1298.0747404593185
3799.2686,0.5975025385613923,1182.0002125662354
3800.1426,0.5982360891851656,1328.9900773587563
3801.0188,0.5996398546348978,1464.8661904511991
3801.8933,0.6008588555624729,1187.0929692445318
3802.77,0.6015168790095922,1794.6983761341553
3803.6448,0.6019519219729654,1166.3436774142579
3804.522,0.6029765157840841,1841.5959316153776
3805.3972,0.6053225991401862,1205.1826154042778
3806.2727,0.6092028254843144,1279.8950114651016
3807.1504,0.6141650784038509,1190.4732591797076
3808.0261,0.6192471128968022,1136.947533308139
3808.9043,0.6235421690668679,757.2309368842541
3809.7805,0.62661109598158,1039.8790257644205
3810.659,0.6287159153304215,1152.0237812346131
3811.5356,0.6304239397599475,1031.8109389949263
3812.4126,0.6321135308856517,928.1709275361698
3813.2917,0.6336667778242778,901.0271229170474
3814.169,0.6345984372484091,1166.9673300010759
3815.0483,0.6345004089531221,790.6034172109455
3815.926,0.6334434962046399,1301.1850718607561
3816.806,0.632096721148987,970.7165442774768
3817.684,0.6313870181853928,1152.9286549930307
3818.5623,0.6317979689701811,1372.2642251548593
3819.4429,0.632895625011541,1055.8415216431094
3820.3215,0.6335182706354965,1053.2002174052434
3821.2024,0.6326089470363162,862.8279184504681
3822.0815,0.6299428622730172,1043.009148085293
3822.963,0.6261287245106636,905.7001849050755
3823.8423,0.6220576208749792,1399.9378538283843
3824.722,0.6182735437789658,1132.714294964008
3825.604,0.6148998432755481,1197.4370093871148
3826.4841,0.6118912109314979,1093.8145704063431
3827.3665,0.6091228845819845,1118.2792712883645
3828.2468,0.6063783147054461,1169.452490394305
3829.1296,0.6032475285214529,1216.645755158263
3830.0105,0.5993705162843895,996.1635246921021
3830.8916,0.5946612627267281,1490.4296924440355
3831.7751,0.5894102632360513,1370.397676798037
3832.6565,0.5841707633671143,1239.3494225554703
3833.5403,0.5794353799974209,1522.7167802302274
3834.4224,0.5756144181703633,1218.5305195658575
3835.3064,0.5729419579808788,1210.2523889790928
3836.1887,0.5716009774895879,1525.4003153764231
3837.0713,0.5717673989189781,1260.0182011162938
3837.956,0.5736725416105898,1561.4696308629327
3838.839,0.577446165993315,1205.6420475425612
3839.7244,0.582908683186726,1103.821456142609
3840.6077,0.5893806628971453,1374.7189043928413
3841.4932,0.5959743626132238,1380.5532545556375
3842.377,0.6019016184605476,1242.5738368675784
3843.261,0.6069115248696383,1093.8089508184628
3844.1472,0.6112479534799478,1487.617791616201
3845.0315,0.6152964119537625,1182.9851669770494
3845.9182,0.619230237141895,962.7286699298982
3846.803,0.622772322118932,1044.8994669425888
3847.69,0.6255256419480376,744.5444700794133
3848.5752,0.627336331214829,989.6488075828858
3849.4604,0.6285567958173387,964.8068271923764
3850.3481,0.6299040406104015,1047.7152315423136
3851.234,0.6321501749005145,1088.8661402292869
3852.122,0.635844594363846,1743.3771720136378
3853.0083,0.6410330573340097,1076.8320556789968
3853.8967,0.6472465663487809,962.0352664897736
3854.7832,0.653564427545565,1145.3092374228634
3855.6702,0.6590733128148024,868.1121590406144
3856.559,0.6631501837608493,902.5805057281733
3857.4463,0.6655406703999754,1121.955861024833
3858.336,0.666260230642749,844.5573860147036
3859.2234,0.6654468585572112,876.22371858045
3860.1135,0.663475483095139,880.015800716591
3861.0015,0.6610999982671455,1147.2569250006284
3861.8896,0.6592759264020777,1057.1091475643864
3862.7803,0.6587398256850977,941.5870781996321
3863.6687,0.6595664900532388,1165.905351850874
3864.5598,0.6610482757745537,889.021738247477
3865.4487,0.6619977987228269,1031.218687190602
3866.34,0.6613452651522143,832.1315652637433
3867.2297,0.6586322405719465,885.3521159389086
3868.1213,0.6541383975902286,991.9486164038084
3869.0112,0.6486678837165626,1168.8681550472545
3869.9014,0.6430652930959769,1187.3394614422182
3870.7937,0.6379303466556413,1085.1298425331101
3871.684,0.6336201919956305,877.644364465874
3872.577,0.6303095662280723,1447.5266342059476
3873.4678,0.6280974740449781,1274.7681951355944
3874.361,0.626744142659897,1002.0326049041729
3875.2524,0.6255624816845673,1228.196683821113
3876.1438,0.6235931330019907,953.1810662202482
3877.0376,0.6200830515569948,852.6165569379424
3877.9297,0.614879036216164,1142.0367998284476
3878.8237,0.6083444771143848,894.7086808319003
3879.716,0.601118246682633,1393.1057222071818
3880.6108,0.5936483708176883,1412.6345823724255
3881.5037,0.5861331987770791,1113.957691244289
3882.3965,0.5784556632424862,1179.830286062501
3883.2917,0.5704459394171121,1344.0593132330507
3884.185,0.5621347346159992,1218.1807566608645
3885.0808,0.5536269502322465,1447.4418051707396
3885.9746,0.5451349811120305,1741.691158556449
3886.8706,0.5366986025883261,1362.6685804549527
3887.765,0.5283859375332913,1608.714719843828
3888.6592,0.5203936030049918,1751.1608593531325
3889.556,0.5133357167846224,1848.212357865177
3890.4507,0.5082597800537495,2825.038088444392
3891.348,0.5061219340084084,1605.7670424188336
3892.243,0.5073614806755761,2473.6109661424443
3893.1406,0.5116495222238231,2016.0144514190374
3894.0361,0.5180646317284049,1553.5944835138957
3894.932,0.5255697309394447,1613.140014300935
3895.83,0.5333423413217063,1428.6084933689795
3896.7263,0.5408578099073305,1540.1282494272987
3897.625,0.5479961884904532,1390.6450980007294
3898.5215,0.5548055924990795,1300.5722734655599
3899.4207,0.5615848301454976,1843.76416919831
3900.3176,0.5686437048231401,1115.5545763975647
3901.2148,0.576223547111317,1351.9428067953393
3902.1145,0.584215194552138,1254.9003361085174
3903.0122,0.5921317470119587,1014.0130965824956
3903.912,0.5996362001331141,1357.5549661428768
3904.8103,0.6068182587305517,1071.7516687363511
3905.7107,0.6143218002346282,1156.8252122539973
3906.6094,0.6227287411855909,1363.197449783508
3907.508,0.6321353572774437,941.5168341762312
3908.409,0.6420150780698265,877.7267322582645
3909.308,0.6515175920762102,1020.872063904429
3910.2097,0.660094259933201,1029.827628747642
3911.1091,0.6675314269429892,1005.9687684075209
3912.011,0.6740553300066191,723.8036375031018
3912.9111,0.6800410573626108,1006.5366546536917
3913.8113,0.6859621296940188,1053.7917843588218
3914.7136,0.6921271777557109,877.0880817920369
3915.6143,0.6984589752361091,889.3577352368582
3916.517,0.7046161694400525,862.3202692211219
3917.4182,0.7100821611098204,862.2945429012116
3918.3215,0.7144345163781072,849.7809814788989
3919.223,0.7173159709060558,792.855099768692
3920.1245,0.7185568372875915,969.5063444463656
3921.0286,0.7181651852997949,797.2712886724509
3921.9307,0.7160898009123082,784.217328672564
3922.835,0.7112352480756706,832.0584725883642
3923.7373,0.6998081257959046,870.5713098233886
3924.642,0.6739011064133997,872.8030105603482
3925.5452,0.6236923231652177,817.7926167289725
3926.448,0.5446528887432595,717.6069455039667
3927.3535,0.4475626970053146,880.6485437525316
3928.257,0.3626973045484535,667.7114227455729
3929.1628,0.32522310049463526,58.05035914214963
3930.0667,0.35323922474315017,810.5095809127271
3930.9731,0.4339110879140239,877.0445726820195
3931.8774,0.5323834316810933,849.7170834259484
3932.782,0.6161171208071129,744.3311570488992
